,Time [s],Current [A],Power [W],Voltage [V],Capacity [Ah],Energy [Wh]
0,0.0,0.8409572566690877,3.5000000018359363,4.166550157932963,0.0,0.0
1,0.04175093962908126,0.8409657945533765,3.500000000000009,4.173890416174833,9.753086699588992e-06,4.0591191306051334e-05
2,0.08350187925816252,0.8409743070992716,3.5000000000043308,4.153613441752524,1.950627212328625e-05,8.118238261215277e-05
3,0.16700375851632504,0.8409912682825558,3.500000000112179,4.161136015998488,3.901303638475818e-05,0.00016236476522685721
4,0.3340075170326501,0.8410247196329492,3.5,4.1631425906230435,7.80281167136029e-05,0.0003247295304510621
5,0.6680150340653002,0.8410901916593471,3.5000000000000018,4.153534776199244,0.00015606435185711796,0.000649459060899472
6,1.0020225510979501,0.841154281350889,3.5000000008696492,4.165948559443765,0.00023410653323361615,0.0009741885914285677
7,1.6700375851632503,0.8412772814170212,3.500000000000005,4.152393085982022,0.0003902137198458813,0.0016236476523253881
8,2.2712511158220203,0.841384016532807,3.499999999679589,4.161384117280527,0.0005307280129624218,0.002208160807079016
9,2.8724646464807906,0.8414868276885503,3.5000000020692497,4.15033505691712,0.0006712594759283889,0.0027926739622317264
10,3.473678177139561,0.8415861411166599,3.5000000053326525,4.168874293212001,0.0008118075246101215,0.003377187117929437
11,4.473678177139561,0.8417460163821897,3.5000000000190727,4.166573795528634,0.001045625862494063,0.0043494093401569575
12,5.473678177139561,0.8418979132126183,3.5000000081781897,4.154090101302932,0.0012794863939420127,0.005321631564650899
13,6.473678177139561,0.8420421408826986,3.4999999976849616,4.167882927800413,0.0015133869886316512,0.006293853786230055
14,7.473678177139561,0.8421792776808001,3.4999999948750333,4.161409437695928,0.0017473256768763177,0.007266076007028675
15,8.473678177139561,0.8423098472411841,3.500000000211787,4.154894311090404,0.0019813006344433135,0.008238298229309727
16,9.473678177139561,0.8424345156814457,3.4999999993839657,4.160921501958493,0.002215310222132604,0.009210520451360829
17,10.473678177139561,0.8425538528370706,3.499999998585287,4.1509167070174735,0.00244935295903179,0.010182742673190075
18,11.473678177139561,0.8426683611666868,3.5000000009634076,4.152509788653456,0.0026834275038003143,0.011154964895679912
19,12.473678177139561,0.8427784675004868,3.500000001778388,4.1623254928312265,0.0029175326336615607,0.01212718711839613
20,13.473678177139561,0.8428845509335892,3.4999999997155564,4.155408411089938,0.0031516672311431137,0.013099409340539341
21,14.473678177139561,0.8429869248083328,3.4999999998671023,4.1519874901628135,0.003385830265812095,0.014071631562724646
22,15.473678177139561,0.8430858681166524,3.5000000017409945,4.151630825948253,0.003620020784733387,0.015043853785430477
23,16.47367817713956,0.8431816315510157,3.4999999998105835,4.141851211600702,0.003854237904608669,0.016016076007600084
24,17.47367817713956,0.8432744443968136,3.499999997232502,4.144267070440931,0.004088480805830006,0.016988298229053556
25,18.47367817713956,0.8433645036581262,3.500000001197617,4.1451361544642005,0.0043227487235128195,0.01796052045160845
26,19.47367817713956,0.843451995548067,3.500000003278842,4.15312074362634,0.004557040944498394,0.01893274267474146
27,20.47367817713956,0.843537091742186,3.4999999997514637,4.153329723871281,0.004791356803315667,0.019904964896894646
28,21.47367817713956,0.8436199413604468,3.4999999991547655,4.169055459740196,0.005025695675915791,0.02087718711888208
29,22.47367817713956,0.8437006742247232,3.500000001384625,4.148562658465423,0.005260056974311548,0.02184940934148892
30,23.47367817713956,0.8437794202157854,3.500000000567261,4.157031978239248,0.005494440146593711,0.022821631563868714
31,24.47367817713956,0.8438562960376339,3.4999999993818918,4.145266797187622,0.005728844673270831,0.023793853785919236
32,25.47367817713956,0.8439313999743948,3.500000000486327,4.1315285884355,0.005963270062152607,0.024766076008276548
33,26.47367817713956,0.8440048252125321,3.5000000007056573,4.168465322796053,0.006197715846933866,0.025738298230694786
34,27.47367817713956,0.8440766648034993,3.4999999984245247,4.1491185978249705,0.00643218158715706,0.02671052045247938
35,28.47367817713956,0.844147000884995,3.499999999275495,4.140352847268947,0.00666666686518067,0.02768274267450035
36,29.47367817713956,0.8442158930948579,3.5000000029403906,4.13488997212985,0.0069011712799292415,0.02865496489753935
37,30.47367817713956,0.8442834159007934,3.499999999787501,4.15361290714183,0.007135694451012795,0.029627187119702546
38,31.47367817713956,0.8443496428119033,3.499999995789435,4.137517088397484,0.007370236018460546,0.030599409340755165
39,32.47367817713956,0.8444146187229997,3.5000000005602616,4.142566569510827,0.007604795634772491,0.031571631563133015
40,33.47367817713956,0.8444784002967045,3.5000000019272512,4.154564546602592,0.007839372968188242,0.032543853785890586
41,34.47367817713956,0.8445410497231876,3.4999999986059205,4.147544303774159,0.008073967704222461,0.03351607600772556
42,35.47367817713956,0.8446026117197502,3.4999999995121964,4.1640541658094365,0.008308579540811281,0.03448829822981228
43,36.47367817713956,0.8446631239214181,3.500000001543253,4.136978452704979,0.008543208186345007,0.03546052045246319
44,37.47367817713956,0.8447226328480864,3.499999999841562,4.157721131616653,0.008777853362136143,0.0364327426746414
45,38.47367817713956,0.8447811823920875,3.4999999990605692,4.156030767349733,0.0090125148016895,0.03740496489660267
46,39.47367817713956,0.8448388054604925,3.500000000747698,4.1356191845623504,0.009247192247650747,0.03837718711903258
47,40.47367817713956,0.8448955338829377,3.500000000187793,4.135747090091186,0.009481885451507119,0.03934940934130697
48,41.47367817713956,0.8449514077848428,3.499999997483999,4.141899211827689,0.009716594175891798,0.0403216315628303
49,42.47367817713956,0.8450064615741562,3.5000000001211857,4.130911669320899,0.009951318192995731,0.04129385378508619
50,43.47367817713956,0.8450607116630504,3.5000000041361186,4.14446723524988,0.0101860572795688,0.04226607600845733
51,44.47367817713956,0.8451141851975683,3.499999997980094,4.153180324013247,0.010420811219901458,0.043238298230118474
52,45.47367817713956,0.8451669294547438,3.499999993641501,4.142405050124566,0.010655579811416663,0.04421052045057444
53,46.47367817713956,0.8452189565751124,3.500000001307716,4.142721380293584,0.01089036285490975,0.04518274267315992
54,47.47367817713956,0.8452702835064397,3.500000002822136,4.13825033070456,0.01112516015588376,0.046154964896166065
55,48.47367817713956,0.8453209422326116,3.499999997464715,4.131055255514163,0.011359971528726151,0.047127187117684044
56,49.47367817713956,0.845370956808404,3.4999999988160653,4.144950521966849,0.011594796794506264,0.0480994093395774
57,50.47367817713956,0.8454203408190547,3.5000000023976177,4.118818131014819,0.011829635778067112,0.04907163156246563
58,51.47367817713956,0.8454691143872827,3.5000000000862723,4.124943669919358,0.012064488309841357,0.05004385378471181
59,52.47367817713956,0.8455173017092031,3.4999999982579677,4.1431009886218595,0.012299354226982803,0.05101607600645014
60,53.47367817713956,0.8455649191185173,3.500000000643981,4.139938342798907,0.012534233371182391,0.051988298228851246
61,54.47367817713956,0.8456119802640044,3.500000001168613,4.135543382112248,0.01276912558792239,0.05296052045139808
62,55.47367817713956,0.8456585037450254,3.499999999181389,4.136437120951876,0.013004030727851565,0.05393274267339292
63,56.47367817713956,0.8457045073742422,3.4999999994555995,4.137090494680943,0.013238948646566634,0.05490496489546392
64,57.47367817713956,0.8457500041013789,3.5000000008614367,4.119831760881699,0.013473879203261459,0.05587718711792543
65,58.47367817713956,0.845795006715448,3.4999999992134385,4.1454455786169575,0.013708822260682417,0.05684940933992916
66,59.47367817713956,0.8458395325748538,3.4999999977603107,4.135203858172861,0.013943777686397657,0.057821631561529245
67,60.47367817713956,0.8458835964301604,3.5000000014684147,4.149169776348907,0.0141787453520727,0.058793853784159356
68,61.47367817713956,0.845927204697811,3.5000000029725515,4.138211128086496,0.014413725131155426,0.059766076007207285
69,62.47367817713956,0.8459703693061631,3.499999996589794,4.128450598141615,0.014648716900407139,0.06073829822848223
70,63.47367817713956,0.8460131120715795,3.4999999963453536,4.162741447053382,0.014883720542649245,0.06171052044968927
71,64.47367817713956,0.8460554420018815,3.5000000067867343,4.148148652816838,0.015118735943205322,0.0626827426737967
72,65.47367817713956,0.8460973562370461,3.50000000367329,4.127329094907387,0.015353762986604503,0.06365496489703927
73,66.47367817713956,0.8461388741639226,3.4999999953664416,4.132391352813862,0.015588801562761146,0.0646271871179744
74,67.47367817713956,0.8461800145298113,3.4999999990916972,4.121439362660523,0.015823851566797206,0.06559940933994432
75,68.47367817713956,0.8462207785152736,3.5000000039227652,4.111632676345316,0.01605891289416256,0.0665716315632562
76,69.47367817713956,0.8462611711748438,3.499999999706952,4.1426628258472435,0.01629398544171113,0.06754385378539701
77,70.47367817713956,0.84630120881542,3.499999997174365,4.142175898234502,0.016529069110826522,0.06851607600683433
78,71.47367817713956,0.8463409041129853,3.5000000051747655,4.145621313080532,0.016764163806413462,0.06948829823049399
79,72.47367817713956,0.8463802539457276,3.5000000054814597,4.142246398932618,0.016999269432509498,0.07046052045423884
80,73.47367817713956,0.8464192646063918,3.49999999123631,4.15002215446067,0.017234385894900162,0.0714327426740267
81,74.47367817713956,0.8464579623472464,3.4999999947394325,4.126194822144998,0.017469513106663285,0.07240496489478766
82,75.47367817713956,0.8464963473118956,3.500000005947015,4.150395577048625,0.01770465098091659,0.07337718711866183
83,76.47367817713956,0.846534414120951,3.5000000016987096,4.136335780148249,0.01793979942928352,0.07434940934135592
84,77.47367817713956,0.8465721783924565,3.499999994979925,4.131593496642594,0.018174958367725872,0.07532163156218367
85,78.47367817713956,0.8466096543773026,3.499999999952909,4.146202908554039,0.018410127716164012,0.07629385378439282
86,79.47367817713956,0.8466468408645222,3.5000000037480743,4.1335482559794645,0.018645307394181933,0.07726607600765618
87,80.47367817713956,0.8466837378165228,3.4999999938054303,4.156776207108085,0.01888049732135319,0.07823829822815768
88,81.47367817713956,0.846720365660756,3.499999994863072,4.133303726102221,0.019115697422925623,0.07921052044895298
89,82.47367817713956,0.8467567281085739,3.5000000039119046,4.141707060729996,0.019350907625178004,0.08018274267226184
90,83.47367817713956,0.8467928203942926,3.5000000021663062,4.124582361460811,0.01958612785306531,0.08115496489508582
91,84.47367817713956,0.8468286524653783,3.4999999964234196,4.12719784370311,0.01982135803430569,0.08212718711631455
92,85.47367817713956,0.8468642366593297,3.4999999992474846,4.146366392080485,0.020056598100044395,0.08309940933832774
93,86.47367817713956,0.846899573630569,3.500000002849497,4.134675407753328,0.020291847981608442,0.0840716315613415
94,87.47367817713956,0.8469346661327821,3.49999999980389,4.116185211443977,0.02052710761108977,0.08504385378350925
95,88.47367817713956,0.8469695227301064,3.499999999575256,4.137259432052103,0.020762376922959243,0.08601607600561348
96,89.47367817713956,0.8470041471633954,3.499999999775105,4.136628624002246,0.02099765585272685,0.08698829822777324
97,90.47367817713956,0.8470385436533818,3.4999999997568016,4.14354850955311,0.021232944337075014,0.08796052044992791
98,91.47367817713956,0.8470727157084251,3.4999999999331726,4.132073127855282,0.021468242313660686,0.08893274267213157
99,92.47367817713956,0.8471066687327233,3.4999999999585434,4.120977495334116,0.021703549721641995,0.08990496489434227
100,93.47367817713956,0.8471404070785691,3.500000000011331,4.121684190447117,0.021938866501386045,0.09087718711656764
101,94.47367817713956,0.8471739347664085,3.5000000000441625,4.1244957797936275,0.02217419259437671,0.09184940933880213
102,95.47367817713956,0.8472072560207066,3.4999999999883737,4.137611619964129,0.022409527943271352,0.09282163156102112
103,96.47367817713956,0.8472403750216319,3.4999999999806923,4.129796013383635,0.02264487249188847,0.09379385378323797
104,97.47367817713956,0.8472732953857336,3.5000000000475815,4.121940373290563,0.022880226185051176,0.0947660760054734
105,98.47367817713956,0.8473060206180406,3.4999999999899183,4.130134860918852,0.023115588968556186,0.09573829822769284
106,99.47367817713956,0.8473385546203869,3.499999999872361,4.133914533516671,0.023350960789284073,0.09671052044987961
107,100.47367817713956,0.8473709011207519,3.50000000003784,4.114927960121916,0.02358634159515095,0.09768274267211235
108,101.47367817713956,0.8474030628737876,3.5000000002229363,4.142132518475581,0.02382173133483811,0.0986549648943965
109,102.47367817713956,0.847435043013513,3.499999999848515,4.146875393114154,0.02405712995789742,0.09962718711657664
110,103.47367817713956,0.8474668458144059,3.4999999996413766,4.141863080646832,0.02429253741506809,0.10059940933869925
111,104.47367817713956,0.8474984744090428,3.5000000003971277,4.118027066583817,0.024527953657959487,0.10157163156103177
112,105.47367817713956,0.8475299301935755,3.5000000003810676,4.143019578873761,0.024763378638568815,0.10254385378335985
113,106.47367817713956,0.8475612169400383,3.49999999965081,4.124631115639207,0.024998812309941047,0.10351607600548508
114,107.47367817713956,0.8475923386544558,3.499999999821302,4.121422399329955,0.02523425462623395,0.10448829822765766
115,108.47367817713956,0.8476232972835454,3.500000000364414,4.1317413489077985,0.025469705542146046,0.10546052044998111
116,109.47367817713956,0.8476540949160493,3.500000000061612,4.146346270708586,0.025705165012956062,0.10643274267222044
117,110.47367817713956,0.8476847350079215,3.4999999996963305,4.126540622260369,0.025940632994902704,0.10740496489435832
118,111.47367817713956,0.8477152207566542,3.5000000004260343,4.131353273130415,0.026176109445112887,0.10837718711669889
119,112.47367817713956,0.8477455533583296,3.500000000706199,4.113831876184599,0.026411594321045756,0.10934940933911728
120,113.47367817713956,0.847775734835058,3.4999999992359,4.132468640584855,0.02664708758072216,0.11032163156112726
121,114.47367817713956,0.8478057698422846,3.4999999990905803,4.134786797917733,0.026882589183456127,0.11129385378309686
122,115.47367817713956,0.8478356607626698,3.5000000015306494,4.152965220471697,0.027118099089223538,0.11226607600574426
123,116.47367817713956,0.8478654064004842,3.500000000966256,4.126006210448829,0.027353617257668116,0.11323829822823489
124,117.47367817713956,0.8478950106106777,3.499999998901418,4.114944970817976,0.027589143649504416,0.11421052045015195
125,118.47367817713956,0.8479244779235717,3.499999999658633,4.129603587557365,0.027824678226705406,0.11518274267227936
126,119.47367817713956,0.8479538086884358,3.5000000009840067,4.128983540648023,0.02806022095134108,0.11615496489477492
127,120.47367817713956,0.8479830036128981,3.500000000034746,4.115808402049923,0.028295771785677996,0.11712718711700679
128,121.47367817713956,0.8480120663158823,3.499999999240985,4.137009911627113,0.028531330692987966,0.11809940933901816
129,122.47367817713956,0.8480409999847817,3.500000001212419,4.132206005373195,0.02876689763742818,0.11907163156157717
130,123.47367817713956,0.848069803862241,3.500000001607158,4.130178553442964,0.02900247258294547,0.12004385378424583
131,124.47367817713956,0.8480984789133574,3.4999999979138696,4.121032296246452,0.029238055493754737,0.12101607600588855
132,125.47367817713956,0.8481270315591848,3.4999999984722496,4.133647188447269,0.02947364633585451,0.1219882982276864
133,126.47367817713956,0.8481554621266034,3.5000000015004398,4.115343155360447,0.029709245075334123,0.12296052045032542
134,127.47367817713956,0.8481837690580889,3.5000000006164047,4.13398471105277,0.029944851677850257,0.12393274267271887
135,128.47367817713956,0.8482119559042651,3.4999999986628376,4.119968194049719,0.030180466110045885,0.12490496489456965
136,129.47367817713956,0.8482400263374866,3.4999999998492966,4.12145343601511,0.030416088339584077,0.12587718711675003
137,130.47367817713956,0.8482679801682209,3.5000000010496795,4.139722679762868,0.030651718334075248,0.1268494093392638
138,131.47367817713956,0.8482958185097687,3.499999999905826,4.13182020697771,0.03088735606143907,0.12782163156145987
139,132.47367817713956,0.8483235439780128,3.4999999998442277,4.103640635144894,0.031123001490321853,0.12879385378363883
140,133.47367817713956,0.8483511577542657,3.499999999910689,4.117781336095145,0.03135865458969804,0.12976607600583626
141,134.47367817713956,0.8483786611765504,3.4999999999050306,4.138809205688695,0.03159431532891375,0.13073829822803207
142,135.47367817713956,0.8484060553251777,3.4999999999830833,4.134553723012896,0.031829983677615185,0.13171052045024959
143,136.47367817713956,0.8484333419905039,3.499999999977924,4.108722872778833,0.03206565960594588,0.1326827426724657
144,137.47367817713956,0.8484605225592532,3.5000000000024354,4.123212711362703,0.03230134308443456,0.1336549648946886
145,138.47367817713956,0.8484875982973932,3.5000000000242153,4.130481232850352,0.032537034083961615,0.13462718711691754
146,139.47367817713956,0.8485145705992982,3.4999999999917124,4.1170668108373345,0.03277273257579475,0.13559940933913747
147,140.47367817713956,0.8485414408670857,3.499999999985607,4.139757726452579,0.03300843853159116,0.13657163156135568
148,141.47367817713956,0.8485682102847221,3.5000000000235576,4.129464329290766,0.03324415192333692,0.13754385378358444
149,142.47367817713956,0.848594880000213,3.4999999999963474,4.113802420386769,0.033479872723336974,0.13851607600580565
150,143.47367817713956,0.8486214513564037,3.4999999999313567,4.131021871223214,0.03371560090426931,0.13948829822800882
151,144.47367817713956,0.8486479256396353,3.5000000000170335,4.118628729594291,0.033951336439169214,0.14046052045023577
152,145.47367817713956,0.8486743037405544,3.500000000119013,4.1243204039415815,0.03418707930131937,0.14143274267249106
153,146.47367817713956,0.8487005867133159,3.499999999924838,4.1296671795894175,0.034422829464295285,0.1424049648946924
154,147.47367817713956,0.8487267761198191,3.49999999980959,4.117375592850749,0.034658586902106346,0.1433771871168617
155,148.47367817713956,0.8487528730616598,3.500000000201821,4.1216655734569745,0.034894351589067917,0.14434940933913998
156,149.47367817713956,0.8487788779026441,3.5000000001966156,4.121961002052768,0.03513012349959643,0.1453216315614168
157,150.47367817713956,0.8488047920188662,3.4999999998216786,4.128364875284336,0.03536590260849056,0.14629385378358947
158,151.47367817713956,0.8488306169187915,3.4999999999068065,4.125484805637892,0.03560168889096801,0.1472660760057858
159,152.47367817713956,0.8488563532434952,3.5000000001836185,4.119905398253508,0.03583748232242453,0.14823829822805903
160,153.47367817713956,0.8488820016922671,3.5000000000311995,4.128178839448381,0.03607328287845016,0.1492105204502899
161,154.47367817713956,0.8489075635642606,3.499999999846107,4.1141062182612025,0.036309090534995786,0.15018274267246937
162,155.47367817713956,0.8489330400655106,3.5000000002148957,4.116056093808347,0.03654490526834732,0.15115496489475128
163,156.47367817713956,0.8489584315550536,3.500000000355876,4.1315383505329,0.03678072705489039,0.15212718711707235
164,157.47367817713956,0.8489837387424198,3.4999999996156936,4.149157385476407,0.037016555871207724,0.15309940933918784
165,158.47367817713956,0.8490089634853688,3.4999999995442272,4.115810449770211,0.037252391694398104,0.15407163156128345
166,159.47367817713956,0.8490341066879752,3.5000000007680714,4.1282275532244705,0.037488234501811435,0.15504385378371902
167,160.47367817713956,0.8490591677100103,3.5000000004809126,4.133018908764466,0.037724084270619775,0.15601607600607484
168,161.47367817713956,0.8490841480825284,3.499999999451136,4.118123592698888,0.037959940978420474,0.15698829822814458
