,Time [s],Current [A],Power [W],Voltage [V],Capacity [Ah],Energy [Wh]
0,0.0,8.757333703184017,35.009999999049114,4.022551900490111,0.0,0.0
1,0.004002379753979839,8.75742264014766,35.010000000001206,4.015086741314847,9.73625863110324e-06,3.8923143107455275e-05
2,0.008004759507959678,8.757511530905864,35.01000000000762,3.9888946212893512,1.9472616088476187e-05,7.784628621491769e-05
3,0.016009519015919356,8.75768919637467,35.00999999994109,3.9866789059159826,3.894572605026394e-05,0.00015569257242969457
4,0.03201903803183871,8.75804396701495,35.010000000000005,4.010113316903694,7.789352367031494e-05,0.0003113851448595103
5,0.06403807606367742,8.758752012630953,35.00999999999999,3.988710791554172,0.00015579541639361338,0.0006227702897191416
6,0.12807615212735485,8.760160151039182,35.00999999999997,3.993615767017738,0.00031162425030534756,0.0012455405794384042
7,0.19211422819103227,8.761562984077706,35.01000000705297,4.011017307788364,0.00046747803830842215,0.0018683108692831279
8,0.3201903803183871,8.764348469487409,35.010000000000026,4.001773942188967,0.0007792847127182052,0.0031138514487216544
9,0.44826653244574194,8.767113781873228,35.01000005287909,3.9971046662589726,0.0010911897678418231,0.004359392030041444
10,0.5763426845730968,8.769858628044657,35.010000106881805,4.002711884837728,0.001403192475558724,0.005604932613282473
11,0.8324949888278065,8.775298129167565,35.010000011545586,3.9896614771633407,0.0020275849300888113,0.008096013772981034
12,1.0886472930825162,8.780658425064424,35.010000107835445,4.0036402086149945,0.00265235878799264,0.010587094939530944
13,1.6009519015919356,8.791117573431094,35.01000000000008,3.9694875174138535,0.003903394912108443,0.01556925725728506
14,2.1132565101013547,8.801223626841443,35.010000031917954,3.9971157269437034,0.005155869196706459,0.020551419579581304
15,2.625561118610774,8.81097435040309,35.01000001703966,3.978007212367153,0.006409731075920289,0.025533581899760266
16,3.137865727120193,8.820373179019454,35.00999987712625,3.964250094610862,0.007664930472693773,0.030515744200028595
17,3.6501703356296122,8.82942475105271,35.009999983989985,3.967692919048719,0.008921417970041392,0.03549790651550436
18,4.162474944139031,8.838139113135654,35.0099997869795,3.968532473831588,0.010179145580682156,0.040480068802944184
19,5.162474944139031,8.854221012740627,35.00999990702998,3.953031694343532,0.01263865141755455,0.05020506877711917
20,6.162474944139031,8.869152945943435,35.010000285906166,3.9329394394112036,0.015102305013649949,0.05993006885653755
21,7.162474944139031,8.883015453732517,35.01000284117427,3.9418226258804783,0.017569809306353427,0.06965506964575263
22,8.162474944139031,8.895904668312415,35.009998069352285,3.924777950570036,0.020040893936440207,0.07938006910946159
23,9.162474944139031,8.907869766515043,35.010012572987264,3.9279488811941654,0.02251530220491661,0.08910507260195805
24,10.162474944139031,8.919024168625775,35.010000000002215,3.9162618846441344,0.024992808918423773,0.09883007260195865
25,11.162474944139031,8.929396408759523,35.00999975493568,3.91872181626834,0.02747319680974586,0.10855507253388524
26,12.162474944139031,8.939051570591468,35.009998773013365,3.9181006446461337,0.029956266690465715,0.11828007219305561
27,13.162474944139031,8.9480427944594,35.00999858955857,3.9020393107991502,0.0324418341333711,0.12800507180126633
28,14.162474944139031,8.95641196412053,35.009999977624865,3.910405839956854,0.034929726345626806,0.137730071795051
29,15.162474944139031,8.964213021129158,35.00999964783766,3.907733969702987,0.03741978551816268,0.14745507169722816
30,16.16247494413903,8.971487401321065,35.00999980630414,3.8943388739651326,0.03991186535186298,0.15718007164342374
31,17.16247494413903,8.978271062438072,35.010000360083566,3.9205560415149696,0.04240582953587356,0.16690507174344696
32,18.16247494413903,8.984600402339694,35.00999994302736,3.8918326176068763,0.04490155186985681,0.1766300717276212
33,19.16247494413903,8.990510052773033,35.00999971942591,3.8847443028706734,0.047398915773404875,0.18635507164968396
34,20.16247494413903,8.99602814517738,35.01000040555838,3.890985621786896,0.04989781248039859,0.19608007176233905
35,21.16247494413903,9.001181197496479,35.009999972925755,3.8951682115724475,0.05239814059081428,0.2058050717548184
36,22.16247494413903,9.005996817203492,35.00999883087291,3.8914128979377822,0.0548998063733708,0.21553007143006087
37,23.16247494413903,9.01050268236481,35.0100000659989,3.872452830058713,0.057402723785138804,0.2252550714483939
38,24.16247494413903,9.014719608034136,35.01000204714088,3.8684714199240937,0.059906812565148286,0.23498007201704418
39,25.16247494413903,9.018666468515038,35.00999935613561,3.879078873810982,0.062411997695291356,0.24470507183819296
40,26.16247494413903,9.022370750732684,35.009996421200135,3.8845211309522694,0.0649182117927171,0.25443007084408187
41,27.16247494413903,9.025858554631291,35.01000154054004,3.8586177262946606,0.06742539472455913,0.2641550712720097
42,28.16247494413903,9.02913803924277,35.01000111772291,3.8873251066629155,0.0699334886243488,0.2738800715824883
43,29.16247494413903,9.032225934920046,35.00999127201326,3.8672086342271004,0.0724424402729377,0.2836050691580475
44,30.16247494413903,9.035161370915844,35.00999521709885,3.8748265720484842,0.07495220732041431,0.2933300678294639
45,31.16247494413903,9.037962622731406,35.01001406482053,3.874201504059247,0.07746275249339526,0.3030550717363585
46,32.162474944139035,9.040608023440127,35.01000612985319,3.8713848081586213,0.07997403249990642,0.31278007343909553
47,33.162474944139035,9.043114236301816,35.00997447286469,3.8793454253419117,0.08248600867665691,0.3225050663482246
48,34.162474944139035,9.045571189579816,35.00999750752733,3.869386394904753,0.08499866734042907,0.3322300656558711
49,35.162474944139035,9.047947867818259,35.010026948294225,3.892538119062004,0.08751198619260081,0.34195507314150836
50,36.162474944139035,9.050193211330498,35.0100035747392,3.8623491393883627,0.09002592875130373,0.3516800741344914
51,37.162474944139035,9.052363353401972,35.00997612135383,3.86084052515907,0.09254047412724872,0.36140506750153417
52,38.162474944139035,9.054528107735347,35.009997768707954,3.8815404938313147,0.09505562082384188,0.37113006688173084
53,39.162474944139035,9.056650182422342,35.010023329208714,3.865251807175202,0.09757135698562586,0.3808550733620666
54,40.162474944139035,9.058672088505501,35.01000079722535,3.8637858147526556,0.10008765478798849,0.3905800735835181
55,41.162474944139035,9.060670514450148,35.00999160885663,3.870113153618286,0.1026045077086691,0.4003050712526449
56,42.162474944139035,9.062654359860861,35.00999894898518,3.8716999657101865,0.10512191169751933,0.4100300709606963
57,43.162474944139035,9.064602842200859,35.01000226996143,3.8521954953354776,0.10763985693146402,0.4197550715912412
58,44.162474944139035,9.066517129278612,35.00999982057381,3.848194561447663,0.11015833391181919,0.42948007154140055
59,45.162474944139035,9.068409111688233,35.009998586126024,3.8482738727704904,0.11267733644284371,0.4392050711486578
60,46.162474944139035,9.070282292430527,35.01000028551642,3.8591051180966716,0.11519685930185218,0.44893007122796796
61,47.162474944139035,9.072136078096186,35.01000110713957,3.862176104951647,0.11771689710132335,0.4586550715355067
62,48.162474944139035,9.073970398802029,35.0099996962481,3.8505934676961617,0.12023744443432392,0.4683800714511312
63,49.162474944139035,9.07578972211203,35.009998932401594,3.8552029796117044,0.12275849713491059,0.47810507115457607
64,50.162474944139035,9.07759809021203,35.01000019907829,3.854950743960879,0.12528005215996948,0.48783007120987565
65,51.162474944139035,9.079393703184538,35.010000339955084,3.845368223590367,0.12780210596640965,0.4975550713043076
66,52.162474944139035,9.081177314050997,35.00999987831713,3.840833963578858,0.1303246552203127,0.5072800712705068
67,53.162474944139035,9.082951561807862,35.00999967444858,3.8508017302417925,0.13284769732081486,0.5170050711800759
68,54.162474944139035,9.08471886628049,35.01000007941714,3.8581599138895792,0.13537123033922613,0.5267300712021361
69,55.162474944139035,9.086479230224976,35.01000047205936,3.829508908360349,0.13789525234762195,0.5364550713332638
70,56.162474944139035,9.08823216385836,35.01000009184585,3.8672576485487085,0.14041976128202704,0.5461800713587764
71,57.162474944139035,9.089980159245442,35.009999781365956,3.8496635078428163,0.14294475577070634,0.5559050712980448
72,58.162474944139035,9.0917249114792,35.01000002447934,3.8490744184966057,0.14547023491278388,0.5656300713048446
73,59.162474944139035,9.093466663948131,35.01000032764392,3.8598286772658597,0.1479961978749917,0.5753550713958567
74,60.162474944139035,9.095205612012121,35.01000002345022,3.863363385464676,0.1505226438783284,0.5850800714023707
75,61.162474944139035,9.096943298411244,35.009999663161,3.8365869053920876,0.15304957257233154,0.5948050713088043
76,62.162474944139035,9.098680949577185,35.010000032318366,3.8468224498830907,0.1555769839472141,0.6045300713177816
77,63.162474944139035,9.100418245244505,35.010000006073106,3.8433192645275787,0.15810487790422645,0.6142550713194685
78,64.16247494413903,9.102156689668439,35.00999976827534,3.847170763923643,0.16063325476246768,0.6239800712551006
79,65.16247494413903,9.103897658115928,35.00999979252989,3.8294124050598106,0.16316211522305543,0.63370507119747
80,66.16247494413903,9.105641086549808,35.010000008967005,3.829542965021615,0.16569145996931925,0.6434300711999609
81,67.16247494413903,9.107386818066743,35.010000017134466,3.8281868089299906,0.16822128964100447,0.6531550712047205
82,68.16247494413903,9.109135787569151,35.00999984917478,3.832201722840917,0.17075160513755144,0.6628800711628245
83,69.16247494413903,9.110889470960219,35.009999764140005,3.854787471367406,0.17328240776837375,0.6726050710973078
84,70.16247494413903,9.112648579824679,35.009999885524266,3.848653638931984,0.17581369904054725,0.6823300710655091
85,71.16247494413903,9.114398471870736,35.00999999554985,3.8302869902668304,0.17834547639384465,0.692055071064273
86,72.16247494413903,9.116154621657481,35.01000000127971,3.8521609156227843,0.1808777415665273,0.7017800710646285
87,73.16247494413903,9.117917787527476,35.01000104488013,3.8467039589907395,0.18341049650750718,0.711505071354873
88,74.16247494413903,9.119689023409189,35.01000118144478,3.8422658169372013,0.18594374345845416,0.7212300716830521
89,75.16247494413903,9.121476985746437,35.00999995872538,3.8444883617066017,0.18847748706560594,0.7309550716715869
90,76.16247494413903,9.123274960846256,35.010001256090845,3.8380902110865835,0.19101173011028547,0.7406800720205011
91,77.16247494413903,9.125080025170098,35.01000040828918,3.8477568362205083,0.19354647456172158,0.7504050721339148
92,78.16247494413903,9.1268947896346,35.00999958845083,3.8466043852261227,0.19608172311439787,0.7601300720195956
93,79.16247494413903,9.128706767395528,35.00999999864492,3.8308375910845904,0.19861747499422996,0.7698550720192192
94,80.16247494413903,9.130527446831607,35.0099999987047,3.8417181914498153,0.20115373261834985,0.7795800720188594
95,81.16247494413903,9.132357940981366,35.010001131763026,3.8579173932360487,0.20369049871306688,0.789305072333238
96,82.16247494413903,9.134202267091338,35.00999753516951,3.8198563833244785,0.2062277771205923,0.7990300716485629
97,83.16247494413903,9.136061148372377,35.0099997752921,3.83024581884912,0.20876557188402906,0.808755071586144
98,84.16247494413903,9.137933303067,35.01000005287719,3.8423790875549035,0.21130388669043657,0.8184800716008322
99,85.16247494413903,9.13981268080804,35.01000120427642,3.84116327045292,0.21384272354621658,0.8282050719353534
100,86.16247494413903,9.141701739752877,35.009999443913316,3.816665302124574,0.21638208514059237,0.8379300717808849
101,87.16247494413903,9.143592327608907,35.01000000104007,3.8216264174778174,0.2189219718982615,0.8476550717811738
102,88.16247494413903,9.145492574863145,35.009999999068086,3.828622645047534,0.22146238650239017,0.8573800717809149
103,89.16247494413903,9.147403535728978,35.010001121292184,3.8292470924588646,0.22400333192898153,0.867105072092385
104,90.16247494413903,9.149325117369923,35.01000121688024,3.8280511836421085,0.22654481112825095,0.8768300724304072
105,91.16247494413903,9.151263463332418,35.00999989834983,3.8306351112332933,0.2290868287569544,0.886555072402171
106,92.16247494413903,9.153214178232371,35.01000097153033,3.829054639630326,0.23162938825090784,0.8962800726720405
107,93.16247494413903,9.155173970678607,35.010000559687974,3.827266400503227,0.23417249213165187,0.9060050728275093
108,94.16247494413903,9.157144402691141,35.009999988272504,3.8227415610012883,0.23671614335462166,0.9157300728242516
109,95.16247494413903,9.159115561897748,35.00999999935267,3.8210927853049883,0.23926034212181546,0.9254550728240718
110,96.16247494413903,9.161096864367648,35.01000107142604,3.820563569792577,0.24180509125080646,0.9351800731216902
111,97.16247494413903,9.16309074561869,35.00999759590944,3.818301803259789,0.24435039423570054,0.9449050724538871
112,98.16247494413903,9.165094115040683,35.0100001155691,3.8230015393720667,0.24689625371210072,0.9546300724859896
113,99.16247494413903,9.167103732695871,35.01000000061221,3.827092305103907,0.24944267141562737,0.9643550724861598
114,100.16247494413903,9.169122192322952,35.010001117944356,3.819870153161484,0.2519896498023837,0.9740800727966998
115,101.16247494413903,9.171149100558814,35.00999999930072,3.8347275885982555,0.25453719121920565,0.9838050727965056
116,102.16247494413903,9.173184863091333,35.01000095010272,3.8195586380988815,0.2570852981256199,0.993530073060423
117,103.16247494413903,9.175231641680364,35.009997912180395,3.8243983384454245,0.25963397358164225,1.0032550724804732
118,104.16247494413903,9.177286515437446,35.010000206620155,3.8057033109407414,0.2621832198359304,1.0129800725378677
119,105.16247494413903,9.179349778895,35.0099983411145,3.8033416496809744,0.2647330392189568,1.022705072077066
120,106.16247494413903,9.181416489028493,35.0099999993819,3.8069515931852798,0.2672834326881314,1.0324300720768944
121,107.16247494413903,9.183490428799143,35.00999999928768,3.808328151888328,0.2698344022516867,1.0421550720766966
122,108.16247494413903,9.185571732249393,35.010000924599524,3.829492574886432,0.2723859499550893,1.0518800723335298
123,109.16247494413903,9.187662201803978,35.00999827546917,3.803503485859117,0.2749380783444793,1.0616050718544934
124,110.16247494413903,9.189761307413587,35.0099998817513,3.8086649872537532,0.27749078981876085,1.0713300718216465
125,111.16247494413903,9.191868519947956,35.00999995068936,3.8071462775541187,0.2800440866298575,1.081055071807949
126,112.16247494413903,9.193980218803846,35.010000911638414,3.81101693529758,0.2825979700239697,1.090780072061182
127,113.16247494413903,9.196097080530704,35.00999975212577,3.790606390487482,0.2851524414352283,1.100505071992328
128,114.16247494413903,9.198212677214766,35.00999999999999,3.814396137394062,0.2877075005122324,1.1102300719923281
129,115.16247494413903,9.200332997153756,35.00999999252422,3.823310951145304,0.2902631485669973,1.1199550719902513
130,116.16247494413903,9.202457735096628,35.009999986218865,3.7976097489033425,0.29281938682674635,1.1296800719864233
131,117.16247494413903,9.204586585151876,35.00999998092868,3.7852017720809163,0.295376216433733,1.1394050719811257
132,118.16247494413903,9.206723038788713,35.009999999330184,3.8021928763984536,0.29793363950006324,1.1491300719809396
133,119.16247494413903,9.208864215966324,35.01000002612567,3.7848508049848593,0.3004916573378317,1.1588550719881967
134,120.16247494413903,9.21100928537202,35.01000001653268,3.795159791801051,0.30305027102821275,1.1685800719927892
135,121.16247494413903,9.213157199136178,35.010000003509454,3.800832851839042,0.30560948136130617,1.178305071993764
136,122.16247494413903,9.215307466388245,35.00999999999986,3.7996498988590575,0.30816928899085844,1.188030071993764
137,123.16247494413903,9.217460082844429,35.00999999913109,3.789257318119147,0.31072969456942634,1.1977550719935226
138,124.16247494413903,9.219614535166855,35.010000001810475,3.7878237693825594,0.3132906986069726,1.2074800719940253
139,125.16247494413903,9.221770528654291,35.009999998826395,3.7876857883227215,0.3158523015315989,1.2172050719936993
140,126.16247494413903,9.223927787231705,35.009999999883505,3.803440926929532,0.3184145036947188,1.226930071993667
141,127.16247494413903,9.226086031883987,35.01000000000662,3.7924085256146767,0.32097730537024216,1.2366550719936689
142,128.16247494413903,9.228244989656213,35.00999999862553,3.7962445618189276,0.32354070675625773,1.2463800719932872
143,129.16247494413903,9.230404392984829,35.009999999978724,3.790781242724023,0.3261047079765313,1.2561050719932811
144,130.16247494413903,9.23256397494913,35.01000000087878,3.7925484452941265,0.32866930908068387,1.2658300719935252
145,131.16247494413903,9.234723474384687,35.00999999934267,3.8060453347813876,0.33123451004579074,1.2755550719933426
146,132.16247494413903,9.236882638925337,35.009999999609335,3.793060763566039,0.33380031077882555,1.285280071993234
147,133.16247494413903,9.23904121923775,35.010000000853715,3.7904655367279356,0.33636671111750277,1.2950050719934711
148,134.16247494413903,9.241198970277141,35.0099999997988,3.7916674583777312,0.3389337108314686,1.3047300719934154
149,135.16247494413903,9.243355655639826,35.00999999933056,3.7856690347440827,0.3415013096247019,1.3144550719932295
150,136.16247494413903,9.245511044336498,35.01000000200547,3.7776836082980925,0.3440695071370176,1.3241800719937866
151,137.16247494413903,9.247664906096318,35.01000000041958,3.7752587498279024,0.34663830294426656,1.3339050719939032
152,138.16247494413903,9.249817020925882,35.00999999616294,3.7887447161134586,0.3492076965611904,1.3436300719928373
153,139.16247494413903,9.251967180202339,35.0100000022332,3.788035044875534,0.35177768744458,1.3533550719934575
154,140.16247494413903,9.254115168003006,35.01000000542784,3.7777046339303286,0.35434827499124744,1.3630800719949654
155,141.16247494413903,9.256260773884984,35.009999991447735,3.790489808624786,0.3569194585395489,1.3728050719925897
156,142.16247494413903,9.258403817888627,35.00999999640178,3.7836218465537033,0.35949123737785127,1.38253007199159
157,143.16247494413903,9.260544106955855,35.01000001914502,3.7853982924094667,0.36206361074089455,1.392255071996908
158,144.16247494413903,9.26268142673096,35.01000000157909,3.786384030487365,0.3646365778038754,1.4019800719973468
159,145.16247494413903,9.264815617772873,35.00999998682861,3.769282756630607,0.3672101376977012,1.411705071993688
160,146.16247494413903,9.266946521056651,35.010000009278,3.778024316778172,0.36978428950910586,1.4214300719962654
161,147.16247494413903,9.26907393772748,35.010000007297776,3.7769656983190605,0.37235903226958567,1.4311550719982926
162,148.16247494413903,9.271197706818775,35.009999986163905,3.7621479127266766,0.37493436496592425,1.4408800719944492
163,149.16247494413903,9.273317695746202,35.010000001484485,3.764936369043121,0.377510286548076,1.4506050719948616
164,150.16247494413903,9.275433732446276,35.01000001253147,3.7527818761917104,0.3800867959182,1.4603300719983425
165,151.16247494413903,9.277545660117338,35.009999999356815,3.765238342440978,0.38266389193489925,1.470055071998164
166,152.16247494413903,9.279653352632897,35.00999999877616,3.765390884241333,0.38524157342174176,1.479780071997824
167,153.16247494413903,9.281756669286734,35.010000000446745,3.764366022746001,0.3878198391632103,1.4895050719979481
168,154.16247494413903,9.283855475720598,35.00999999968046,3.7715033194113694,0.39039868790646604,1.4992300719978593
169,155.16247494413903,9.28594964643465,35.009999999542565,3.7788725997165247,0.39297811836380897,1.5089550719977323
170,156.16247494413903,9.288039060379562,35.01000000087166,3.749823518257349,0.39555812921391437,1.5186800719979743
171,157.16247494413903,9.290123599397317,35.01000000022138,3.761692681588734,0.3981387191026358,1.5284050719980358
