,Time [s],Current [A],Power [W],Voltage [V],Capacity [Ah],Energy [Wh]
0,0.0,4.302547890279219,17.499999999924785,4.081658904094492,0.0,0.0
1,0.008156977896821248,4.3025902802421,17.50000000000031,4.0838707456512475,9.748926059725766e-06,3.9651975887326214e-05
2,0.016313955793642497,4.3026326313207335,17.5000000000063,4.065386405340145,1.9497948079677174e-05,7.930395177466601e-05
3,0.032627911587284994,4.302717253022468,17.49999999999721,4.061476943416845,3.8996375595885906e-05,0.00015860790354930437
4,0.06525582317456999,4.302886117899589,17.5,4.0815169959746465,7.799476110282582e-05,0.0003172158070986064
5,0.13051164634913998,4.303222845687447,17.5,4.071334910527414,0.00015599763585253415,0.0006344316141972106
6,0.26102329269827995,4.303890237539028,17.49999999999999,4.065836884529344,0.0003120275804656479,0.0012688632283944182
7,0.3915349390474199,4.304553005040351,17.50000000588646,4.0746195895912845,0.0004680815525448018,0.0019032948428050296
8,0.6525582317456999,4.305859931770773,17.500000000000092,4.048656429454508,0.0007802842573471347,0.003172158071199453
9,0.9135815244439799,4.307147833598579,17.500000046876316,4.0562189383291996,0.001092580343364958,0.0044410213029927054
10,1.1746048171422598,4.308416468566861,17.500000094422077,4.073746114483418,0.0014049684136262961,0.005709884538233334
11,1.6966514025388197,4.310907566289648,17.500000013255953,4.044460094477028,0.0020301057955545475,0.008247610996944453
12,2.2186979879353794,4.313326904337581,17.50000008044919,4.05270389357418,0.002655594012806922,0.010785337465399458
13,3.2186979879353794,4.317752094442921,17.5000000000001,4.04692354380484,0.0038549695945966217,0.015646448576510597
14,4.218697987935379,4.321915966692436,17.499999889648862,4.039947216772222,0.005055501807566743,0.020507559656968613
15,5.218697987935379,4.325836507208082,17.499999716701065,4.052882755377805,0.006257123059568988,0.025368670689385576
16,6.218697987935379,4.329533654276823,17.49999954687071,4.013820865459695,0.007459771296868105,0.03022978167462744
17,7.218697987935379,4.3330233845044726,17.49999998538333,4.028649147576403,0.008663388903674903,0.035090892781678366
18,8.218697987935379,4.336326712418027,17.499999915816403,4.031289852238201,0.009867924101568797,0.03995200386940514
19,9.218697987935379,4.33946117106299,17.499999900218395,4.019062978537354,0.011073329982419626,0.04481311495279913
20,10.218697987935379,4.342441935248939,17.500000100211754,4.038177989055543,0.012279563853322111,0.04967422609174685
21,11.218697987935379,4.345282328179704,17.5000001131686,4.049890415845789,0.013486586722260918,0.05453533723429368
22,12.218697987935379,4.347994540159826,17.49999998223248,4.0280753683647585,0.014694362983416425,0.059396448340469366
23,13.218697987935379,4.350587977376449,17.50000014213153,4.030993268715167,0.015902859643798773,0.06425755949106146
24,14.218697987935379,4.353070695997038,17.5000001413971,4.024379313934957,0.017112045948242394,0.06911867064144954
25,15.218697987935379,4.355451191986778,17.49999967035837,4.004432957232299,0.018321893501572054,0.07397978166099355
26,16.21869798793538,4.3577376161689525,17.49999983685105,4.028135485572892,0.019532376172730095,0.0788408927267855
27,17.21869798793538,4.35993466049116,17.50000073907855,4.031486496798542,0.02074346913397764,0.0837020040431962
28,18.21869798793538,4.362047042588242,17.49999977503478,4.002304781776413,0.02195514886802993,0.08856311509181697
29,19.21869798793538,4.364083006567506,17.499999717933154,4.007569397523121,0.023167394147632015,0.09342422612457618
30,20.21869798793538,4.366047334038392,17.500001960752574,4.010681546345259,0.02438018507375379,0.09828533778034079
31,21.21869798793538,4.36793933186606,17.500001196352642,3.982451955034249,0.025593501554827695,0.10314644922377207
32,22.21869798793538,4.369763983635856,17.499996703792664,4.01271134040258,0.02680732488361543,0.10800755941927004
33,23.21869798793538,4.371533119270968,17.499999751799788,4.011607649484083,0.028021639638968476,0.11286867046143664
34,24.21869798793538,4.373243652438185,17.500003441153435,3.998740069395472,0.029236429542423528,0.1177297825284237
35,25.21869798793538,4.3748930025442725,17.500000023691914,4.004604288178728,0.030451677598685827,0.1225908936461159
36,26.21869798793538,4.37649023096108,17.49999712346247,3.983884617469457,0.031667369329508345,0.12745200395818881
37,27.21869798793538,4.3780417560619425,17.50000049396127,3.9938479082994305,0.03288349203952556,0.1323131152065114
38,28.21869798793538,4.379543904119945,17.50000253981204,3.999895985497029,0.034100032012892204,0.13717422702312587
39,29.21869798793538,4.380997237431578,17.500000054197162,3.9908390768212754,0.03531697568995653,0.14203533814929176
40,30.21869798793538,4.382408211952749,17.49999932070347,4.01299850099478,0.03653431130438785,0.1468964490717094
41,31.21869798793538,4.383777652511867,17.49999988827375,3.995072828693574,0.03775202731897448,0.15175756015178543
42,32.21869798793538,4.385106077951281,17.49999990258265,3.9953262254319593,0.03897011234062762,0.15661867123583617
43,33.21869798793538,4.386394751869478,17.49999968988329,3.9944680247901245,0.040188555327258034,0.16147978226080376
44,34.21869798793538,4.387646774194776,17.49999995747021,3.984534961327246,0.04140734609786769,0.16634089336010102
45,35.21869798793538,4.38886306728877,17.500000405613772,3.988149784636858,0.04262647472767013,0.17120200458388263
46,36.21869798793538,4.3900438762631255,17.500000152179897,3.9748863901687,0.04384593135996544,0.17606311573726594
47,37.21869798793538,4.391191166282313,17.49999962128266,3.979037712896417,0.04506570668393275,0.1809242267431778
48,38.21869798793538,4.392307142919737,17.499999900286834,3.9903073531106013,0.046285792001410454,0.18578533782659082
49,39.21869798793538,4.393392133253598,17.500000437440267,3.9893266812806973,0.04750617870509201,0.1906464490592131
50,40.21869798793538,4.394446239661273,17.500000088551516,3.9841975633421565,0.04872685821610903,0.19550756019492183
51,41.21869798793538,4.395471272307016,17.49999956048258,3.974126375247233,0.04994782245841654,0.20036867118394477
52,42.21869798793538,4.396469011786216,17.499999966067833,3.969612343219692,0.05116906385057938,0.20522978228563027
53,43.21869798793538,4.397439514555018,17.500000455866218,3.973384312233083,0.052390574826844664,0.2100908935233709
54,44.21869798793538,4.3983828560899045,17.499999880372993,3.964155907067862,0.0536123478424252,0.2149520046012523
55,45.21869798793538,4.399300746000157,17.499999283189368,3.971974558339666,0.05483437582742524,0.21981311551324934
56,46.21869798793538,4.400195207181961,17.500000479993048,3.976005220861821,0.05605665227386467,0.22467422675769183
57,47.21869798793538,4.401065310559817,17.500001394110818,3.9702801583645946,0.05727917041568684,0.22953533825605593
58,48.21869798793538,4.401910438489103,17.499999947129062,3.9741526293923517,0.05850192331526715,0.23439644935248066
59,49.21869798793538,4.402734015841002,17.499999816849936,3.967842582658284,0.05972490498633409,0.23925756041271676
60,50.21869798793538,4.403536467988353,17.50000086104772,3.9779619061249316,0.0609481095607753,0.2441186717630078
61,51.21869798793538,4.404316508714201,17.500000515728168,3.966390863295415,0.06217153081319591,0.24897978301737675
62,52.21869798793538,4.405075201401308,17.49999930943195,3.952385965158915,0.06339516281358516,0.25384089393666337
63,53.21869798793538,4.405815276118975,17.49999999454764,3.97819918367967,0.06461900039028488,0.25870200504625995
64,54.21869798793538,4.406535482371136,17.50000015188936,3.9811726747437657,0.06584303802427686,0.2635631161995626
65,55.21869798793538,4.407236243073788,17.499999932600492,3.969020173429122,0.06706727031401957,0.2684242272919516
66,56.21869798793538,4.407918526478467,17.499999850096483,3.9681375194990176,0.06829169212693026,0.2732853383614229
67,57.21869798793538,4.4085828268348575,17.5000001133381,3.9781389968311984,0.06951629846771772,0.27814644950401674
68,58.21869798793538,4.40922949781544,17.500000098931757,3.9786474698415417,0.07074108443933311,0.2830075606426089
69,59.21869798793538,4.409859001203868,17.499999915220812,3.9836138625404165,0.07196604527300085,0.2878686717301703
70,60.21869798793538,4.410471967118747,17.499999990411606,3.9795662753687826,0.07319117637497827,0.29272978283861795
71,61.21869798793538,4.411068759462867,17.500000106441608,3.969230696616226,0.07441647325260685,0.29759089397929617
72,62.21869798793538,4.411649709152816,17.50000000913749,3.9519297910897055,0.07564193150514929,0.30245200509294545
73,63.21869798793538,4.412215293040057,17.49999992953633,3.9767959190145232,0.07686754686432708,0.3073131161844833
74,64.21869798793537,4.412765968039424,17.500000011177768,3.956347228088913,0.07809331518878246,0.3121742272986993
75,65.21869798793537,4.413302099007498,17.500000013062152,3.9753954137184375,0.07931923243850678,0.31703533841343884
76,66.21869798793537,4.413824042332884,17.499999936928596,3.972855785358913,0.08054529467248812,0.3218964495070301
77,67.21869798793537,4.414332138379095,17.499999942928902,3.9650972535694877,0.0817714980442601,0.32675756060228817
78,68.21869798793537,4.414826708201872,17.499999940582214,3.970827361800802,0.0829978387965384,0.33161867169689435
79,69.21869798793537,4.415308052594049,17.49999999697128,3.9603853654167653,0.0842243132555923,0.3364797828071642
80,70.21869798793537,4.415776617078121,17.4999999877621,3.963647477479852,0.08545091787144733,0.3413408939148758
81,71.21869798793537,4.4162327640148025,17.49999999820686,3.96572483520557,0.08667764919478478,0.34620200502548887
82,72.21869798793537,4.416676706912298,17.50000003618708,3.9576940761702457,0.08790450383559376,0.3510631161466519
83,73.21869798793537,4.417108726951007,17.499999996089734,3.9606297086523234,0.08913147848196905,0.35592422725667683
84,74.21869798793537,4.4175293476214,17.500000006747634,3.9493004018468167,0.09035856996741942,0.36078533836966226
85,75.21869798793537,4.417938722861649,17.499999969194175,3.9619044619424044,0.09158577516821434,0.3656464494722162
86,76.21869798793537,4.418337105088427,17.499999955017827,3.9658125683006626,0.0928130910307389,0.3705075605708323
87,77.21869798793537,4.418724793993915,17.49999994412678,3.95424815425092,0.0940405145846261,0.375368671666423
88,78.21869798793537,4.4191020423781096,17.499999999365045,3.972867559125013,0.09526804292973112,0.38022978277735775
89,79.21869798793537,4.419469183302542,17.499999999216474,3.973863143673407,0.09649567325842628,0.3850908938882512
90,80.21869798793537,4.41982650085036,17.499999995159367,3.9616313322306667,0.09772340284199584,0.38995200499801774
91,81.21869798793537,4.42017419224093,17.500000019451164,3.9604084762681406,0.09895122900650721,0.3948131161145319
92,82.21869798793537,4.4205124940548846,17.50000000061708,3.963652026994454,0.10017914914374468,0.39967422722581447
93,83.21869798793537,4.4208418031951,17.500000005029626,3.948526388066715,0.10140716075574333,0.4045353383383227
94,84.21869798793537,4.421162265222737,17.499999970908434,3.958303950061631,0.10263526138497185,0.40939644944135284
95,85.21869798793537,4.421474097192317,17.49999996031043,3.9502522704072094,0.10386344863419195,0.41425756054143903
96,86.21869798793537,4.421777544082217,17.49999995301902,3.9592548393321763,0.10509172017421478,0.41911867163949984
97,87.21869798793537,4.422072823488119,17.499999999145423,3.948118772596478,0.10632007373629482,0.4239797827503736
98,88.21869798793537,4.422360203813049,17.5000000017127,3.9530936081627908,0.10754850712624289,0.4288408938619605
99,89.21869798793537,4.422639920413071,17.499999995710557,3.9664603134923437,0.10877701821524653,0.4337020049718801
100,90.21869798793537,4.422912149480706,17.500000012738386,3.96322989555498,0.11000560492343561,0.43856311608652965
101,91.21869798793537,4.423177092205652,17.500000001646594,3.932021789710366,0.11123426522682607,0.44342422719809815
102,92.21869798793537,4.423435068551384,17.500000003150465,3.97414844620412,0.11246299719031257,0.44828533831008444
103,93.21869798793537,4.423686210602781,17.49999997338738,3.950473506835923,0.11369179891548001,0.4531464494138031
104,94.21869798793537,4.4239307083567825,17.499999964512188,3.973738175107331,0.11492066855669023,0.4580075605150565
105,95.21869798793537,4.424168768348078,17.499999959600267,3.9458079051078756,0.11614960432567581,0.46286867161494544
106,96.21869798793537,4.424400606208722,17.499999958167674,3.963654986685234,0.11737860449406712,0.46772978271443644
107,97.21869798793537,4.424626410034039,17.499999963511407,3.9627404967722115,0.11860766738574324,0.4725908938154118
108,98.21869798793537,4.424846362327791,17.499999964176073,3.9700808013371685,0.11983679137527874,0.47745200491657186
109,99.21869798793537,4.425060651631867,17.499999963298247,3.97452793393261,0.12106597488962093,0.482313116017488
110,100.21869798793537,4.425269463669309,17.499999963781747,3.9611439722630677,0.12229521640730685,0.48717422711853847
111,101.21869798793537,4.425472977119476,17.499999965011945,3.949961261371137,0.12352451445650671,0.4920353382199307
112,102.21869798793537,4.425669822656443,17.49999918945563,3.935931857727299,0.12475386718502239,0.4968964491058906
113,103.21869798793537,4.425861304346913,17.50000145612207,3.967621905442418,0.12598327310289653,0.50175756062148
114,104.21869798793537,4.4260489573005115,17.4999999272962,3.957337527392092,0.12721273114659112,0.5066186717123956
115,105.21869798793537,4.426232827071805,17.500001144091236,3.9548183082491457,0.1284422402652222,0.5114797831413098
116,106.21869798793537,4.42641407112127,17.499999983515107,3.951792481654706,0.12967179972942253,0.5163408942478418
117,107.21869798793537,4.4265869686000485,17.500001968922874,3.9500714615199075,0.13090140722070032,0.521202005905876
118,108.21869798793537,4.426759042013181,17.4999997002084,3.9542329426180185,0.13213106251014844,0.5260631169337117
119,109.21869798793537,4.42692553362874,17.499999289582423,3.9446825788563555,0.13336076404726752,0.5309242278474845
120,110.21869798793537,4.427086992561668,17.500001289896623,3.9368070548788356,0.1345905104340902,0.5357853393169002
121,111.21869798793537,4.427248468746701,17.499999846766396,3.959462157525708,0.13582030167540873,0.5406464503854465
122,112.21869798793537,4.427405404827086,17.50000105450611,3.9559519597350206,0.13705013651008294,0.5455075617894759
123,113.21869798793537,4.42755713879817,17.500000009726712,3.946014957857284,0.13828001349308242,0.550368672903289
124,114.21869798793537,4.427706422999479,17.499999522559072,3.967283541141451,0.13950993194391562,0.5552297838817776
125,115.21869798793537,4.427851819715499,17.499999269757758,3.9405309277207046,0.14073989078272547,0.5600908947900436
126,116.21869798793537,4.427993270566376,17.500001041874825,3.9471568306832436,0.14196988891343837,0.5649520061905644
127,117.21869798793537,4.4281327410930835,17.49999976432809,3.9499876545555517,0.14319992578596422,0.5698131172362111
128,118.21869798793537,4.428271991315182,17.500000035431178,3.9542633841404675,0.14443000133910733,0.5746742283571642
129,119.21869798793537,4.428406233370406,17.499999981192882,3.9519249072895892,0.14566011418171024,0.5795353394630511
130,120.21869798793537,4.428536195826634,17.500000903185384,3.943611552303997,0.1468902631249954,0.5843964508250471
131,121.21869798793537,4.428666834144398,17.499999700966686,3.9470093774544512,0.14812044835670218,0.5892575618530935
132,122.21869798793537,4.428792336117387,17.500001410892168,3.9586984587489393,0.1493506684500681,0.5941186733561191
133,123.21869798793537,4.428918651166557,17.49999999872773,3.9527461450586188,0.15058092363094772,0.5989797844668768
134,124.21869798793537,4.429041034895894,17.499999981296508,3.966764373240496,0.1518112128073077,0.6038408955727925
135,125.21869798793537,4.429159651620151,17.500000792448397,3.954095153525211,0.15304153493275774,0.6087020069040281
136,126.21869798793537,4.42927931861414,17.499999720264153,3.952385897388446,0.15427189029903945,0.6135631179374348
137,127.21869798793537,4.4293943771514535,17.500001271928433,3.941719449957921,0.15550227762602595,0.6184242294018594
138,128.21869798793537,4.429510600455476,17.49999999689558,3.942499116601957,0.1567326972372636,0.623285340512108
139,129.21869798793537,4.4296233719543165,17.499999982079544,3.9624978294214745,0.15796314817391757,0.6281464516182412
140,130.21869798793537,4.429732838339855,17.50000069882011,3.959439494493145,0.15919362951790086,0.633007562923469
141,131.21869798793537,4.429843630255103,17.49999973937806,3.95532464090022,0.16042414163741617,0.6378686739621852
142,132.21869798793537,4.429950283505487,17.500001147801452,3.933922465957728,0.16165468338283434,0.64272978539213
143,133.21869798793537,4.430058407628731,17.499999990486085,3.9460297308320977,0.16288525516273122,0.6475908965005984
144,134.21869798793537,4.430161897508009,17.500001240182595,3.9438963328274372,0.1641158556898168,0.6524520079562046
145,135.21869798793537,4.430266852942456,17.499999801148892,3.9531511119171183,0.1653464853711897,0.6573131190120793
146,136.21869798793537,4.430368021535643,17.50000117379979,3.9699405515107054,0.1665771431549496,0.662174230449246
147,137.21869798793537,4.430470776118983,17.49999999114425,3.9388448034925703,0.16780782948164932,0.6670353415578971
148,138.21869798793537,4.430569273853132,17.500001170102237,3.956801397087512,0.16903854316883077,0.6718964529940367
149,139.21869798793537,4.430669354475463,17.499999815684095,3.9499161170476644,0.17026928465618504,0.6767575640539488
150,140.21869798793537,4.430765959355131,17.500001088220756,3.9293856667055627,0.17150005297822812,0.6816186754673436
151,141.21869798793537,4.430864252609447,17.49999999169319,3.951815968908244,0.17273084860395296,0.6864797865761472
152,142.21869798793537,4.430958615641614,17.50000108430255,3.9485012598740163,0.17396167044163122,0.6913408979884536
153,143.21869798793537,4.431054652241048,17.49999982867972,3.954233144011405,0.17519251895614263,0.6962020090519757
154,144.21869798793537,4.4311474953972505,17.5000010052759,3.9456196780380064,0.17642339326041964,0.7010631204423301
155,145.21869798793537,4.431242096687168,17.49999999224494,3.946509709855593,0.1776542938428327,0.705924231551287
156,146.21869798793537,4.431333072568745,17.50000100319267,3.946974947367067,0.178885219696324,0.7107853429410628
157,147.21869798793537,4.431425783228837,17.49999984108605,3.950905783916784,0.1801161713027765,0.7156464540080312
158,148.21869798793537,4.431515562776008,17.50000092747391,3.95448876152981,0.18134714784799202,0.720507565376774
159,149.21869798793537,4.431607143786026,17.499999992790052,3.9487930588461357,0.18257814983237702,0.7253686764858822
160,150.21869798793537,4.431695385736879,17.500000926725857,3.9515611921070657,0.18380917632841506,0.7302297878544173
161,151.21869798793537,4.431785400768067,17.499999852865717,3.9535709892435946,0.18504022782862842,0.7350908989246577
162,152.21869798793537,4.431873723853329,17.49999959184279,3.9464330582642018,0.18627130386303212,0.7399520099223919
163,153.21869798793537,4.431960564990686,17.50000047193206,3.9520741189646866,0.18750240401997398,0.7448131211645952
164,154.21869798793537,4.432049360060187,17.499999911217536,3.9481535636243565,0.18873352884221292,0.7496742322510445
165,155.21869798793537,4.4321368708318545,17.500000741774528,3.9403679208330056,0.18996467797299954,0.7545353435682041
166,156.21869798793537,4.4322229411859375,17.499999954533145,3.9407891753008712,0.19119585101221787,0.7593964546666855
167,157.21869798793537,4.432309148757982,17.499999730108975,3.9518052242986696,0.192427047997984,0.7642575657028268
168,158.21869798793537,4.432394558564894,17.499999572654765,3.9516044335212044,0.19365826870869646,0.7691186766952309
169,159.21869798793537,4.432478986758785,17.500000347294957,3.9431741750659395,0.19488951287168502,0.7739797879028129
170,160.21869798793537,4.432565096475966,17.499999998152774,3.9360319419099934,0.19612078095403945,0.7788408990134109
