,Time [s],Current [A],Power [W],Voltage [V],Capacity [Ah],Energy [Wh]
0,0.0,0.0,0.0,4.113268350362284,0.0,0.0
1,0.06,0.0,0.0,4.09752094684766,0.0,0.0
2,0.12,0.0,0.0,4.111981092727273,0.0,0.0
3,0.24,0.0,0.0,4.090657634161366,0.0,0.0
4,0.48,0.0,0.0,4.095076808769714,0.0,0.0
5,0.96,0.0,0.0,4.1009978018487825,0.0,0.0
6,1.92,0.0,0.0,4.082896976832926,0.0,0.0
7,2.92,0.0,0.0,4.098097822593562,0.0,0.0
8,3.92,0.0,0.0,4.102816625622755,0.0,0.0
9,4.92,0.0,0.0,4.081651112124615,0.0,0.0
10,5.92,0.0,0.0,4.10577690840323,0.0,0.0
11,6.92,0.0,0.0,4.116836137089411,0.0,0.0
12,7.92,0.0,0.0,4.088946524423269,0.0,0.0
13,8.92,0.0,0.0,4.087378081540593,0.0,0.0
14,9.92,0.0,0.0,4.084784906603507,0.0,0.0
15,10.92,0.0,0.0,4.102607116983912,0.0,0.0
16,11.92,0.0,0.0,4.102732145719147,0.0,0.0
17,12.92,0.0,0.0,4.098951747159296,0.0,0.0
18,13.92,0.0,0.0,4.097601001731996,0.0,0.0
19,14.92,0.0,0.0,4.096338558652493,0.0,0.0
20,15.92,0.0,0.0,4.094106545890024,0.0,0.0
21,16.92,0.0,0.0,4.086473769703015,0.0,0.0
22,17.92,0.0,0.0,4.107880896490954,0.0,0.0
23,18.92,0.0,0.0,4.093788578105426,0.0,0.0
24,19.92,0.0,0.0,4.093477206212144,0.0,0.0
25,20.92,0.0,0.0,4.103821235067617,0.0,0.0
26,21.92,0.0,0.0,4.081148330846472,0.0,0.0
27,22.92,0.0,0.0,4.095548173037567,0.0,0.0
28,23.92,0.0,0.0,4.087511578922135,0.0,0.0
29,24.92,0.0,0.0,4.096068508726412,0.0,0.0
30,25.92,0.0,0.0,4.092287282357589,0.0,0.0
31,26.92,0.0,0.0,4.09660495278337,0.0,0.0
32,27.92,0.0,0.0,4.090093536858143,0.0,0.0
33,28.92,0.0,0.0,4.095073130603765,0.0,0.0
34,29.92,0.0,0.0,4.102922411422108,0.0,0.0
35,30.92,0.0,0.0,4.091655296914222,0.0,0.0
36,31.92,0.0,0.0,4.102821108643573,0.0,0.0
37,32.92,0.0,0.0,4.099826234115638,0.0,0.0
38,33.92,0.0,0.0,4.0819286792135125,0.0,0.0
39,34.92,0.0,0.0,4.106032074040273,0.0,0.0
40,35.92,0.0,0.0,4.091798533460003,0.0,0.0
41,36.92,0.0,0.0,4.119624397815029,0.0,0.0
42,37.92,0.0,0.0,4.081056003239425,0.0,0.0
43,38.92,0.0,0.0,4.084535358664538,0.0,0.0
44,39.92,0.0,0.0,4.117941549670419,0.0,0.0
45,40.92,0.0,0.0,4.0707271250918655,0.0,0.0
46,41.92,0.0,0.0,4.105265681624919,0.0,0.0
47,42.92,0.0,0.0,4.088961540977095,0.0,0.0
48,43.92,0.0,0.0,4.112519690184074,0.0,0.0
49,44.92,0.0,0.0,4.098911071162313,0.0,0.0
50,45.92,0.0,0.0,4.08666477697926,0.0,0.0
51,46.92,0.0,0.0,4.114064403626418,0.0,0.0
52,47.92,0.0,0.0,4.090558786568662,0.0,0.0
53,48.92,0.0,0.0,4.109194427670037,0.0,0.0
54,49.92,0.0,0.0,4.089086398278738,0.0,0.0
55,50.92,0.0,0.0,4.085541546343501,0.0,0.0
56,51.92,0.0,0.0,4.1108825618050995,0.0,0.0
57,52.92,0.0,0.0,4.1061906188067185,0.0,0.0
58,53.92,0.0,0.0,4.102614955368194,0.0,0.0
59,54.92,0.0,0.0,4.091071598612221,0.0,0.0
60,55.92,0.0,0.0,4.091319412524536,0.0,0.0
61,56.92,0.0,0.0,4.096487020589577,0.0,0.0
62,57.92,0.0,0.0,4.0971846048008285,0.0,0.0
63,58.92,0.0,0.0,4.094536756597364,0.0,0.0
64,59.92,0.0,0.0,4.087308476610022,0.0,0.0
65,60.0,0.0,0.0,4.101068962185165,0.0,0.0
66,60.00000000000001,8.958550963200047,35.009999997923,3.904765779871832,1.768175919399567e-17,6.910028104857031e-17
67,60.00391562388317,8.95857202065835,35.010000000000005,3.912633373602007,9.743999600877132e-06,3.807944226379494e-05
68,60.007831247766326,8.958593051474923,35.010000000000964,3.9015731528135045,1.9488022076394265e-05,7.615888452752184e-05
69,60.01566249553265,8.958635018728327,35.00999999987178,3.9021038029695387,3.897615832076829e-05,0.0001523177690547637
70,60.0313249910653,8.958718508925198,35.009999999999984,3.895526981509608,7.795279404973074e-05,0.00030463553810973606
71,60.06264998213059,8.958884467903061,35.00999999999999,3.899649922818659,0.00015590750958084974,0.0006092710762196808
72,60.125299964261174,8.959212081427388,35.00999999999997,3.905134003894385,0.00031182264202684007,0.0012185421524396392
73,60.18794994639176,8.959537487139773,35.0100000006239,3.878610618844082,0.0004677434374345155,0.0018278132286704556
74,60.31324991065293,8.960181596756309,35.01,3.9108902803062926,0.0007796074468364964,0.003046355381110304
75,60.438549874914095,8.960820021706393,35.01000000317156,3.9065752874233595,0.0010914936769672076,0.004264897533660541
76,60.56384983917526,8.961453492632916,35.01000000552606,3.9012589752606535,0.001403401955399156,0.005483439686292727
77,60.814449767697596,8.962710657385598,35.01000000141558,3.913944052114571,0.002027306024873376,0.007920523991270963
78,61.06504969621993,8.963955341424295,35.009999995065286,3.896009940088143,0.002651296738161798,0.01035760829580715
79,61.5662495532646,8.96641282013936,35.00999999999997,3.8971701433050714,0.0038996203002888328,0.01523177690556654
80,62.067449410309266,8.968842316450619,35.00999996919691,3.89541871632417,0.005148282102194726,0.020105945511037466
81,62.56864926735393,8.97125648310847,35.00999994660139,3.9022372863780217,0.006397280009651675,0.02498011411336259
82,63.0698491243986,8.97366529328965,35.00999993699888,3.907708541461925,0.007646613276919306,0.02985428271435083
83,63.57104898144327,8.976076617800484,35.01000000371888,3.9106347131891006,0.00889628225404808,0.03472845132462798
84,64.07224883848794,8.978494908971781,35.010000050203914,3.8905079898716153,0.010146287910951674,0.03960261994137687
85,65.07224883848794,8.983357080664216,35.010000000999426,3.911292693675014,0.012641664877802843,0.049327619941654494
86,66.07224883848794,8.988288217141093,35.010000323307324,3.9028060969877822,0.01513841160478648,0.05905262003146209
87,67.07224883848794,8.993297774173897,35.00999999902236,3.8915614962171916,0.01763654987539034,0.06877762003119052
88,68.07224883848794,8.998387075589408,35.010000756612634,3.889612803945028,0.02013610184083184,0.0785026202413607
89,69.07224883848794,9.003544140289895,35.00999937625804,3.88593963320021,0.0226370863242457,0.08822762006809903
90,70.0,9.008389231830417,35.01000008220695,3.9053904026037376,0.024958626205685543,0.0972500001349893
91,70.00000000000001,0.0,0.0,4.0912727939350315,0.024958626205685543,0.0972500001349893
92,70.01472272460285,0.0,0.0,4.077730183622041,0.024958626205685543,0.0972500001349893
93,70.02944544920568,0.0,0.0,4.074913937585928,0.024958626205685543,0.0972500001349893
94,70.05889089841136,0.0,0.0,4.069646774953287,0.024958626205685543,0.0972500001349893
95,70.11778179682271,0.0,0.0,4.069666563971755,0.024958626205685543,0.0972500001349893
96,70.17667269523406,0.0,0.0,4.078210315910845,0.024958626205685543,0.0972500001349893
97,70.23556359364541,0.0,0.0,4.076485103393809,0.024958626205685543,0.0972500001349893
98,70.29445449205676,0.0,0.0,4.076861915992219,0.024958626205685543,0.0972500001349893
99,70.41223628887947,0.0,0.0,4.074246656735994,0.024958626205685543,0.0972500001349893
100,70.53001808570218,0.0,0.0,4.078440572447006,0.024958626205685543,0.0972500001349893
101,70.6477998825249,0.0,0.0,4.067152319823646,0.024958626205685543,0.0972500001349893
102,70.8833634761703,0.0,0.0,4.075012937767306,0.024958626205685543,0.0972500001349893
103,71.11892706981571,0.0,0.0,4.0653760982769045,0.024958626205685543,0.0972500001349893
104,71.59005425710653,0.0,0.0,4.063628126592156,0.024958626205685543,0.0972500001349893
105,72.00262541605824,0.0,0.0,4.074470006630327,0.024958626205685543,0.0972500001349893
106,72.41519657500994,0.0,0.0,4.076610043136693,0.024958626205685543,0.0972500001349893
107,72.82776773396165,0.0,0.0,4.080243910653707,0.024958626205685543,0.0972500001349893
108,73.24033889291336,0.0,0.0,4.078864135319764,0.024958626205685543,0.0972500001349893
109,73.65291005186506,0.0,0.0,4.076138815871394,0.024958626205685543,0.0972500001349893
110,74.06548121081677,0.0,0.0,4.075067958451854,0.024958626205685543,0.0972500001349893
111,74.89062352872018,0.0,0.0,4.073977205600121,0.024958626205685543,0.0972500001349893
112,75.7157658466236,0.0,0.0,4.068762165454748,0.024958626205685543,0.0972500001349893
113,76.54090816452701,0.0,0.0,4.07974242755332,0.024958626205685543,0.0972500001349893
114,77.36605048243042,0.0,0.0,4.080070053566626,0.024958626205685543,0.0972500001349893
115,78.19119280033384,0.0,0.0,4.075073539021872,0.024958626205685543,0.0972500001349893
116,79.01633511823725,0.0,0.0,4.066391330648828,0.024958626205685543,0.0972500001349893
117,79.84147743614066,0.0,0.0,4.0780026731229215,0.024958626205685543,0.0972500001349893
118,80.66661975404408,0.0,0.0,4.083181074697082,0.024958626205685543,0.0972500001349893
119,81.49176207194749,0.0,0.0,4.096788784100994,0.024958626205685543,0.0972500001349893
120,82.3169043898509,0.0,0.0,4.081667615243192,0.024958626205685543,0.0972500001349893
121,83.3169043898509,0.0,0.0,4.092629168627397,0.024958626205685543,0.0972500001349893
122,84.3169043898509,0.0,0.0,4.076808962741139,0.024958626205685543,0.0972500001349893
123,85.3169043898509,0.0,0.0,4.087662815706097,0.024958626205685543,0.0972500001349893
124,86.3169043898509,0.0,0.0,4.084916129151389,0.024958626205685543,0.0972500001349893
125,87.3169043898509,0.0,0.0,4.0961874291953215,0.024958626205685543,0.0972500001349893
126,88.3169043898509,0.0,0.0,4.079586031063916,0.024958626205685543,0.0972500001349893
127,89.3169043898509,0.0,0.0,4.086580522217681,0.024958626205685543,0.0972500001349893
128,90.3169043898509,0.0,0.0,4.102573988752474,0.024958626205685543,0.0972500001349893
129,91.3169043898509,0.0,0.0,4.089597378681127,0.024958626205685543,0.0972500001349893
130,92.3169043898509,0.0,0.0,4.090995639780478,0.024958626205685543,0.0972500001349893
131,93.3169043898509,0.0,0.0,4.095369766660333,0.024958626205685543,0.0972500001349893
132,94.3169043898509,0.0,0.0,4.083157218257496,0.024958626205685543,0.0972500001349893
133,95.3169043898509,0.0,0.0,4.079302056439424,0.024958626205685543,0.0972500001349893
134,96.3169043898509,0.0,0.0,4.090623038678324,0.024958626205685543,0.0972500001349893
135,97.3169043898509,0.0,0.0,4.111461725371941,0.024958626205685543,0.0972500001349893
136,98.3169043898509,0.0,0.0,4.075471776098319,0.024958626205685543,0.0972500001349893
137,99.3169043898509,0.0,0.0,4.083471984514812,0.024958626205685543,0.0972500001349893
138,100.3169043898509,0.0,0.0,4.097487520675261,0.024958626205685543,0.0972500001349893
139,101.3169043898509,0.0,0.0,4.0879194747037975,0.024958626205685543,0.0972500001349893
140,102.3169043898509,0.0,0.0,4.093495313740771,0.024958626205685543,0.0972500001349893
141,103.3169043898509,0.0,0.0,4.069942205708995,0.024958626205685543,0.0972500001349893
142,104.3169043898509,0.0,0.0,4.093338194613757,0.024958626205685543,0.0972500001349893
143,105.3169043898509,0.0,0.0,4.088609033416643,0.024958626205685543,0.0972500001349893
144,106.3169043898509,0.0,0.0,4.094323007929423,0.024958626205685543,0.0972500001349893
145,107.3169043898509,0.0,0.0,4.099165491158256,0.024958626205685543,0.0972500001349893
146,108.3169043898509,0.0,0.0,4.105315036515024,0.024958626205685543,0.0972500001349893
147,109.3169043898509,0.0,0.0,4.06873963206742,0.024958626205685543,0.0972500001349893
148,110.3169043898509,0.0,0.0,4.088059410757562,0.024958626205685543,0.0972500001349893
149,111.3169043898509,0.0,0.0,4.095034788963067,0.024958626205685543,0.0972500001349893
150,112.3169043898509,0.0,0.0,4.100971119843522,0.024958626205685543,0.0972500001349893
151,113.3169043898509,0.0,0.0,4.104996550605609,0.024958626205685543,0.0972500001349893
152,114.3169043898509,0.0,0.0,4.074437166674651,0.024958626205685543,0.0972500001349893
153,115.3169043898509,0.0,0.0,4.073765730961868,0.024958626205685543,0.0972500001349893
154,116.3169043898509,0.0,0.0,4.087906077087978,0.024958626205685543,0.0972500001349893
155,117.3169043898509,0.0,0.0,4.078833889064793,0.024958626205685543,0.0972500001349893
156,118.3169043898509,0.0,0.0,4.089593267329169,0.024958626205685543,0.0972500001349893
157,119.3169043898509,0.0,0.0,4.084255449844073,0.024958626205685543,0.0972500001349893
158,120.3169043898509,0.0,0.0,4.081357207195908,0.024958626205685543,0.0972500001349893
159,121.3169043898509,0.0,0.0,4.08911815479863,0.024958626205685543,0.0972500001349893
160,122.3169043898509,0.0,0.0,4.099013395815876,0.024958626205685543,0.0972500001349893
161,123.3169043898509,0.0,0.0,4.09367120541534,0.024958626205685543,0.0972500001349893
162,124.3169043898509,0.0,0.0,4.078219046671654,0.024958626205685543,0.0972500001349893
163,125.3169043898509,0.0,0.0,4.10050354057079,0.024958626205685543,0.0972500001349893
164,126.3169043898509,0.0,0.0,4.086385209116111,0.024958626205685543,0.0972500001349893
165,127.3169043898509,0.0,0.0,4.074332407348916,0.024958626205685543,0.0972500001349893
166,128.3169043898509,0.0,0.0,4.111214985854613,0.024958626205685543,0.0972500001349893
167,129.3169043898509,0.0,0.0,4.080194523506395,0.024958626205685543,0.0972500001349893
168,130.3169043898509,0.0,0.0,4.099720339863028,0.024958626205685543,0.0972500001349893
169,131.3169043898509,0.0,0.0,4.111192556366372,0.024958626205685543,0.0972500001349893
170,132.3169043898509,0.0,0.0,4.082729617564177,0.024958626205685543,0.0972500001349893
171,133.3169043898509,0.0,0.0,4.089269880666905,0.024958626205685543,0.0972500001349893
172,134.3169043898509,0.0,0.0,4.08084929192042,0.024958626205685543,0.0972500001349893
173,135.3169043898509,0.0,0.0,4.084459262980357,0.024958626205685543,0.0972500001349893
174,136.3169043898509,0.0,0.0,4.100514603656739,0.024958626205685543,0.0972500001349893
175,137.3169043898509,0.0,0.0,4.095622325961784,0.024958626205685543,0.0972500001349893
176,138.3169043898509,0.0,0.0,4.100798183215147,0.024958626205685543,0.0972500001349893
177,139.3169043898509,0.0,0.0,4.091687713948844,0.024958626205685543,0.0972500001349893
178,140.3169043898509,0.0,0.0,4.096262920791137,0.024958626205685543,0.0972500001349893
179,141.3169043898509,0.0,0.0,4.090392122845871,0.024958626205685543,0.0972500001349893
180,142.3169043898509,0.0,0.0,4.094517735022089,0.024958626205685543,0.0972500001349893
181,143.3169043898509,0.0,0.0,4.1055112384311565,0.024958626205685543,0.0972500001349893
182,144.3169043898509,0.0,0.0,4.106134615101229,0.024958626205685543,0.0972500001349893
183,145.3169043898509,0.0,0.0,4.096492435965556,0.024958626205685543,0.0972500001349893
184,146.3169043898509,0.0,0.0,4.088256974034253,0.024958626205685543,0.0972500001349893
185,147.3169043898509,0.0,0.0,4.091287370607233,0.024958626205685543,0.0972500001349893
186,148.3169043898509,0.0,0.0,4.110088684695038,0.024958626205685543,0.0972500001349893
187,149.3169043898509,0.0,0.0,4.094381304323342,0.024958626205685543,0.0972500001349893
188,150.3169043898509,0.0,0.0,4.084858694383365,0.024958626205685543,0.0972500001349893
189,151.3169043898509,0.0,0.0,4.084640197681085,0.024958626205685543,0.0972500001349893
190,152.3169043898509,0.0,0.0,4.094489593734009,0.024958626205685543,0.0972500001349893
191,153.3169043898509,0.0,0.0,4.090803314109037,0.024958626205685543,0.0972500001349893
192,154.3169043898509,0.0,0.0,4.10547672799183,0.024958626205685543,0.0972500001349893
193,155.3169043898509,0.0,0.0,4.081191342771115,0.024958626205685543,0.0972500001349893
194,156.3169043898509,0.0,0.0,4.08626497828534,0.024958626205685543,0.0972500001349893
195,157.3169043898509,0.0,0.0,4.069752298705165,0.024958626205685543,0.0972500001349893
196,158.3169043898509,0.0,0.0,4.099447201137496,0.024958626205685543,0.0972500001349893
197,159.3169043898509,0.0,0.0,4.080937762358822,0.024958626205685543,0.0972500001349893
198,160.3169043898509,0.0,0.0,4.0995970462086655,0.024958626205685543,0.0972500001349893
199,161.3169043898509,0.0,0.0,4.089053454991038,0.024958626205685543,0.0972500001349893
200,162.3169043898509,0.0,0.0,4.100340024277327,0.024958626205685543,0.0972500001349893
201,163.3169043898509,0.0,0.0,4.102044262235365,0.024958626205685543,0.0972500001349893
202,164.3169043898509,0.0,0.0,4.094839526888533,0.024958626205685543,0.0972500001349893
203,165.3169043898509,0.0,0.0,4.105289920930711,0.024958626205685543,0.0972500001349893
204,166.3169043898509,0.0,0.0,4.100595334286362,0.024958626205685543,0.0972500001349893
205,167.3169043898509,0.0,0.0,4.093396985310045,0.024958626205685543,0.0972500001349893
206,168.3169043898509,0.0,0.0,4.084160138482848,0.024958626205685543,0.0972500001349893
207,169.3169043898509,0.0,0.0,4.084147998341376,0.024958626205685543,0.0972500001349893
208,170.3169043898509,0.0,0.0,4.101388085770069,0.024958626205685543,0.0972500001349893
209,171.3169043898509,0.0,0.0,4.0859677601423705,0.024958626205685543,0.0972500001349893
210,172.3169043898509,0.0,0.0,4.08949696785312,0.024958626205685543,0.0972500001349893
211,173.3169043898509,0.0,0.0,4.091537139189646,0.024958626205685543,0.0972500001349893
212,174.3169043898509,0.0,0.0,4.0901653707975205,0.024958626205685543,0.0972500001349893
213,175.3169043898509,0.0,0.0,4.099645944316861,0.024958626205685543,0.0972500001349893
214,176.3169043898509,0.0,0.0,4.078474335372796,0.024958626205685543,0.0972500001349893
215,177.3169043898509,0.0,0.0,4.0952671286541795,0.024958626205685543,0.0972500001349893
216,178.3169043898509,0.0,0.0,4.10273552908479,0.024958626205685543,0.0972500001349893
217,179.3169043898509,0.0,0.0,4.106549472174596,0.024958626205685543,0.0972500001349893
218,180.3169043898509,0.0,0.0,4.089423884125973,0.024958626205685543,0.0972500001349893
219,181.3169043898509,0.0,0.0,4.092104942851105,0.024958626205685543,0.0972500001349893
220,182.3169043898509,0.0,0.0,4.083100918351785,0.024958626205685543,0.0972500001349893
221,183.3169043898509,0.0,0.0,4.092429708058151,0.024958626205685543,0.0972500001349893
222,184.3169043898509,0.0,0.0,4.102732189661249,0.024958626205685543,0.0972500001349893
223,185.3169043898509,0.0,0.0,4.1011705702548635,0.024958626205685543,0.0972500001349893
224,186.3169043898509,0.0,0.0,4.088805037837264,0.024958626205685543,0.0972500001349893
225,187.3169043898509,0.0,0.0,4.08511089724083,0.024958626205685543,0.0972500001349893
226,188.3169043898509,0.0,0.0,4.095602334551078,0.024958626205685543,0.0972500001349893
227,189.3169043898509,0.0,0.0,4.111143694162736,0.024958626205685543,0.0972500001349893
228,190.3169043898509,0.0,0.0,4.099297620758024,0.024958626205685543,0.0972500001349893
229,191.3169043898509,0.0,0.0,4.0953985644207,0.024958626205685543,0.0972500001349893
230,192.3169043898509,0.0,0.0,4.087408929870172,0.024958626205685543,0.0972500001349893
231,193.3169043898509,0.0,0.0,4.096970551987389,0.024958626205685543,0.0972500001349893
232,194.3169043898509,0.0,0.0,4.109166145376462,0.024958626205685543,0.0972500001349893
233,195.3169043898509,0.0,0.0,4.081725066195871,0.024958626205685543,0.0972500001349893
234,196.3169043898509,0.0,0.0,4.078377085755196,0.024958626205685543,0.0972500001349893
235,197.3169043898509,0.0,0.0,4.0959005638745705,0.024958626205685543,0.0972500001349893
236,198.3169043898509,0.0,0.0,4.084887078632601,0.024958626205685543,0.0972500001349893
237,199.3169043898509,0.0,0.0,4.090056163661255,0.024958626205685543,0.0972500001349893
238,200.3169043898509,0.0,0.0,4.105651351882389,0.024958626205685543,0.0972500001349893
239,201.3169043898509,0.0,0.0,4.089449095086127,0.024958626205685543,0.0972500001349893
240,202.3169043898509,0.0,0.0,4.099343656445009,0.024958626205685543,0.0972500001349893
241,203.3169043898509,0.0,0.0,4.115517743765873,0.024958626205685543,0.0972500001349893
242,204.3169043898509,0.0,0.0,4.085963670307618,0.024958626205685543,0.0972500001349893
243,205.3169043898509,0.0,0.0,4.088025360647559,0.024958626205685543,0.0972500001349893
244,206.3169043898509,0.0,0.0,4.0926746698751,0.024958626205685543,0.0972500001349893
245,207.3169043898509,0.0,0.0,4.086029064785508,0.024958626205685543,0.0972500001349893
246,208.3169043898509,0.0,0.0,4.088855612188667,0.024958626205685543,0.0972500001349893
247,209.3169043898509,0.0,0.0,4.085629044811532,0.024958626205685543,0.0972500001349893
248,210.3169043898509,0.0,0.0,4.0929351102360245,0.024958626205685543,0.0972500001349893
249,211.3169043898509,0.0,0.0,4.077307125790254,0.024958626205685543,0.0972500001349893
250,212.3169043898509,0.0,0.0,4.092887352879743,0.024958626205685543,0.0972500001349893
251,213.3169043898509,0.0,0.0,4.087070554166764,0.024958626205685543,0.0972500001349893
