,Time [s],Current [A],Power [W],Voltage [V],Capacity [Ah],Energy [Wh]
0,0.0,0.0,0.0,4.087422282772758,0.0,0.0
1,0.06,0.0,0.0,4.092000943773507,0.0,0.0
2,0.12,0.0,0.0,4.107553390067695,0.0,0.0
3,0.24,0.0,0.0,4.095515263637031,0.0,0.0
4,0.48,0.0,0.0,4.09797507529972,0.0,0.0
5,0.96,0.0,0.0,4.0948290685278845,0.0,0.0
6,1.92,0.0,0.0,4.0902211295348545,0.0,0.0
7,2.92,0.0,0.0,4.10365542347958,0.0,0.0
8,3.92,0.0,0.0,4.072279879167841,0.0,0.0
9,4.92,0.0,0.0,4.079489976016787,0.0,0.0
10,5.92,0.0,0.0,4.087165268849257,0.0,0.0
11,6.92,0.0,0.0,4.112459663790822,0.0,0.0
12,7.92,0.0,0.0,4.098096511544013,0.0,0.0
13,8.92,0.0,0.0,4.098422224762683,0.0,0.0
14,9.92,0.0,0.0,4.087173799371599,0.0,0.0
15,10.92,0.0,0.0,4.098427151132755,0.0,0.0
16,11.92,0.0,0.0,4.1084030128728335,0.0,0.0
17,12.92,0.0,0.0,4.093779732022619,0.0,0.0
18,13.92,0.0,0.0,4.0920169430567555,0.0,0.0
19,14.92,0.0,0.0,4.101455418293147,0.0,0.0
20,15.92,0.0,0.0,4.108348658857455,0.0,0.0
21,16.92,0.0,0.0,4.101263780936267,0.0,0.0
22,17.92,0.0,0.0,4.085594681210782,0.0,0.0
23,18.92,0.0,0.0,4.092569982479415,0.0,0.0
24,19.92,0.0,0.0,4.095533421448379,0.0,0.0
25,20.92,0.0,0.0,4.108234556498984,0.0,0.0
26,21.92,0.0,0.0,4.096099769395349,0.0,0.0
27,22.92,0.0,0.0,4.076361489788046,0.0,0.0
28,23.92,0.0,0.0,4.105973781735305,0.0,0.0
29,24.92,0.0,0.0,4.0993892781322,0.0,0.0
30,25.92,0.0,0.0,4.1001378640172375,0.0,0.0
31,26.92,0.0,0.0,4.106418671187334,0.0,0.0
32,27.92,0.0,0.0,4.105490689865964,0.0,0.0
33,28.92,0.0,0.0,4.099130605885593,0.0,0.0
34,29.92,0.0,0.0,4.104425070390222,0.0,0.0
35,30.92,0.0,0.0,4.106889589667478,0.0,0.0
36,31.92,0.0,0.0,4.091528620153151,0.0,0.0
37,32.92,0.0,0.0,4.093455508257252,0.0,0.0
38,33.92,0.0,0.0,4.087684615226423,0.0,0.0
39,34.92,0.0,0.0,4.0957587333375605,0.0,0.0
40,35.92,0.0,0.0,4.092925155265176,0.0,0.0
41,36.92,0.0,0.0,4.109019649802891,0.0,0.0
42,37.92,0.0,0.0,4.086374446072963,0.0,0.0
43,38.92,0.0,0.0,4.092035876345635,0.0,0.0
44,39.92,0.0,0.0,4.088777627007811,0.0,0.0
45,40.92,0.0,0.0,4.072405730587842,0.0,0.0
46,41.92,0.0,0.0,4.099619597374092,0.0,0.0
47,42.92,0.0,0.0,4.097490444173298,0.0,0.0
48,43.92,0.0,0.0,4.091011945753389,0.0,0.0
49,44.92,0.0,0.0,4.0980715604239,0.0,0.0
50,45.92,0.0,0.0,4.106471739692027,0.0,0.0
51,46.92,0.0,0.0,4.102654584082303,0.0,0.0
52,47.92,0.0,0.0,4.099659402570426,0.0,0.0
53,48.92,0.0,0.0,4.084173332650275,0.0,0.0
54,49.92,0.0,0.0,4.0877147553173785,0.0,0.0
55,50.92,0.0,0.0,4.1022390487484675,0.0,0.0
56,51.92,0.0,0.0,4.106798565088897,0.0,0.0
57,52.92,0.0,0.0,4.0920860959316405,0.0,0.0
58,53.92,0.0,0.0,4.1098146551111014,0.0,0.0
59,54.92,0.0,0.0,4.091569057069764,0.0,0.0
60,55.92,0.0,0.0,4.116966680278966,0.0,0.0
61,56.92,0.0,0.0,4.110724264843044,0.0,0.0
62,57.92,0.0,0.0,4.092341381091973,0.0,0.0
63,58.92,0.0,0.0,4.110644987656448,0.0,0.0
64,59.92,0.0,0.0,4.097240839386193,0.0,0.0
65,60.0,0.0,0.0,4.0959699548907285,0.0,0.0
66,60.00000000000001,4.400196308104016,17.499999999691003,3.9947392303666387,8.684798674004779e-18,3.454027187661722e-17
67,60.00798281469753,4.4002061376234405,17.500000000000004,3.9824047063392216,9.7572306187696e-06,3.880534922409141e-05
68,60.01596562939505,4.400215940446354,17.500000000000945,3.970029194522474,1.9514482974785748e-05,7.761069844815036e-05
69,60.03193125879009,4.4002354898651,17.499999999981238,3.9780790004571713,3.902907438647765e-05,0.0001552213968961809
70,60.06386251758017,4.400274342195451,17.5,3.9561158509357846,7.805860182203229e-05,0.00031044279379240834
71,60.127725035160324,4.400351578076259,17.5,3.998012588393813,0.000156119026825854,0.0006208855875848286
72,60.255450070320634,4.40050397742752,17.49999999999999,3.9776675480233745,0.0003122452838369691,0.0012417711751696692
73,60.383175105480944,4.4006551445083515,17.500000000334857,3.9792962456678227,0.000468376904131616,0.00186265676276639
74,60.638625175801565,4.400953291942356,17.500000000000004,3.98600110792659,0.0007806613007717381,0.0031044279379360716
75,60.894075246122185,4.401247463929694,17.500000002108074,3.9762153739403976,0.0010929665713715413,0.0043461991132553385
76,61.149525316442805,4.401537892871126,17.500000003958366,3.9884720081639147,0.0014052924503306535,0.005587970288705899
77,61.66042545708405,4.402110359495931,17.500000000901828,3.998457492542151,0.0020300254508264213,0.008071512639173281
78,62.1713255977253,4.402670850506619,17.49999999987511,3.9655533673634507,0.0026548379943600194,0.010555054989494954
79,63.1713255977253,4.403733217092833,17.500000000000004,3.979467106623365,0.0038780972213302506,0.015416166100606065
80,64.1713255977253,4.404755553300811,17.499999989092643,3.980102164218494,0.005101640430580476,0.020277277208687355
81,65.1713255977253,4.405743026008564,17.49999998120032,3.9646357655248936,0.006325457937805077,0.02513838831457633
82,66.1713255977253,4.4067002023527335,17.499999975460984,3.9810522445930414,0.007549541327347504,0.029999499418871048
83,67.1713255977253,4.407630660950852,17.500000000952404,3.9704221141692884,0.00877388317761163,0.03486061053024672
84,68.1713255977253,4.408537195418982,17.500000012581015,3.979899148584397,0.009998476843005791,0.039721721644852555
85,69.1713255977253,4.409422626781785,17.49999999413036,3.9647372834890184,0.011223316461556287,0.04458283275433321
86,70.0,4.4101422411519815,17.499999997958543,4.004608830804926,0.01223847534645435,0.048611111098254195
87,70.00000000000001,0.0,0.0,4.094493291158941,0.01223847534645435,0.048611111098254195
88,70.01965835245335,0.0,0.0,4.079158881722769,0.01223847534645435,0.048611111098254195
89,70.03648926464028,0.0,0.0,4.091319241111309,0.01223847534645435,0.048611111098254195
90,70.07015108901413,0.0,0.0,4.097820903223115,0.01223847534645435,0.048611111098254195
91,70.13747473776183,0.0,0.0,4.070179858105553,0.01223847534645435,0.048611111098254195
92,70.20479838650954,0.0,0.0,4.101799005049952,0.01223847534645435,0.048611111098254195
93,70.33944568400494,0.0,0.0,4.078171973254903,0.01223847534645435,0.048611111098254195
94,70.47409298150035,0.0,0.0,4.096142699133194,0.01223847534645435,0.048611111098254195
95,70.60874027899575,0.0,0.0,4.079504684260195,0.01223847534645435,0.048611111098254195
96,70.87803487398656,0.0,0.0,4.090919825574808,0.01223847534645435,0.048611111098254195
97,71.14732946897738,0.0,0.0,4.092046521003099,0.01223847534645435,0.048611111098254195
98,71.685918658959,0.0,0.0,4.09340256711537,0.01223847534645435,0.048611111098254195
99,72.17064892994246,0.0,0.0,4.091791793443556,0.01223847534645435,0.048611111098254195
100,72.65537920092592,0.0,0.0,4.08424279246848,0.01223847534645435,0.048611111098254195
101,73.14010947190938,0.0,0.0,4.081340269771438,0.01223847534645435,0.048611111098254195
102,73.62483974289285,0.0,0.0,4.100023628449173,0.01223847534645435,0.048611111098254195
103,74.59430028485977,0.0,0.0,4.093069308949757,0.01223847534645435,0.048611111098254195
104,75.5637608268267,0.0,0.0,4.0924416597221525,0.01223847534645435,0.048611111098254195
105,76.5637608268267,0.0,0.0,4.084604190809248,0.01223847534645435,0.048611111098254195
106,77.5637608268267,0.0,0.0,4.078433433306883,0.01223847534645435,0.048611111098254195
107,78.5637608268267,0.0,0.0,4.089445441013315,0.01223847534645435,0.048611111098254195
108,79.5637608268267,0.0,0.0,4.093834215017393,0.01223847534645435,0.048611111098254195
109,80.5637608268267,0.0,0.0,4.073095994027614,0.01223847534645435,0.048611111098254195
110,81.5637608268267,0.0,0.0,4.086788495651099,0.01223847534645435,0.048611111098254195
111,82.5637608268267,0.0,0.0,4.099847238647561,0.01223847534645435,0.048611111098254195
112,83.5637608268267,0.0,0.0,4.107952265061192,0.01223847534645435,0.048611111098254195
113,84.5637608268267,0.0,0.0,4.0972531456231,0.01223847534645435,0.048611111098254195
114,85.5637608268267,0.0,0.0,4.107287261218841,0.01223847534645435,0.048611111098254195
115,86.5637608268267,0.0,0.0,4.06624201126594,0.01223847534645435,0.048611111098254195
116,87.5637608268267,0.0,0.0,4.082866261314615,0.01223847534645435,0.048611111098254195
117,88.5637608268267,0.0,0.0,4.079060460187351,0.01223847534645435,0.048611111098254195
118,89.5637608268267,0.0,0.0,4.102816973496106,0.01223847534645435,0.048611111098254195
119,90.5637608268267,0.0,0.0,4.086516536884018,0.01223847534645435,0.048611111098254195
120,91.5637608268267,0.0,0.0,4.103909848611502,0.01223847534645435,0.048611111098254195
121,92.5637608268267,0.0,0.0,4.085522911043768,0.01223847534645435,0.048611111098254195
122,93.5637608268267,0.0,0.0,4.064684528952604,0.01223847534645435,0.048611111098254195
123,94.5637608268267,0.0,0.0,4.105786283272864,0.01223847534645435,0.048611111098254195
124,95.5637608268267,0.0,0.0,4.098509467952081,0.01223847534645435,0.048611111098254195
125,96.5637608268267,0.0,0.0,4.108707565593688,0.01223847534645435,0.048611111098254195
126,97.5637608268267,0.0,0.0,4.0998679464144026,0.01223847534645435,0.048611111098254195
127,98.5637608268267,0.0,0.0,4.0964593378726795,0.01223847534645435,0.048611111098254195
128,99.5637608268267,0.0,0.0,4.1032597768189225,0.01223847534645435,0.048611111098254195
129,100.5637608268267,0.0,0.0,4.095480376746434,0.01223847534645435,0.048611111098254195
130,101.5637608268267,0.0,0.0,4.085048009995837,0.01223847534645435,0.048611111098254195
131,102.5637608268267,0.0,0.0,4.110496683357926,0.01223847534645435,0.048611111098254195
132,103.5637608268267,0.0,0.0,4.107355281469294,0.01223847534645435,0.048611111098254195
133,104.5637608268267,0.0,0.0,4.083692394816105,0.01223847534645435,0.048611111098254195
134,105.5637608268267,0.0,0.0,4.10567793330085,0.01223847534645435,0.048611111098254195
135,106.5637608268267,0.0,0.0,4.1095745126717125,0.01223847534645435,0.048611111098254195
136,107.5637608268267,0.0,0.0,4.084892457900576,0.01223847534645435,0.048611111098254195
137,108.5637608268267,0.0,0.0,4.090815595152792,0.01223847534645435,0.048611111098254195
138,109.5637608268267,0.0,0.0,4.092536463387592,0.01223847534645435,0.048611111098254195
139,110.5637608268267,0.0,0.0,4.0830394127245,0.01223847534645435,0.048611111098254195
140,111.5637608268267,0.0,0.0,4.078041597221996,0.01223847534645435,0.048611111098254195
141,112.5637608268267,0.0,0.0,4.093588519450142,0.01223847534645435,0.048611111098254195
142,113.5637608268267,0.0,0.0,4.084624495715398,0.01223847534645435,0.048611111098254195
143,114.5637608268267,0.0,0.0,4.080478968560081,0.01223847534645435,0.048611111098254195
144,115.5637608268267,0.0,0.0,4.102741821648657,0.01223847534645435,0.048611111098254195
145,116.5637608268267,0.0,0.0,4.079518009927293,0.01223847534645435,0.048611111098254195
146,117.5637608268267,0.0,0.0,4.0871250601950395,0.01223847534645435,0.048611111098254195
147,118.5637608268267,0.0,0.0,4.102556142527139,0.01223847534645435,0.048611111098254195
148,119.5637608268267,0.0,0.0,4.105536616397506,0.01223847534645435,0.048611111098254195
149,120.5637608268267,0.0,0.0,4.087520927750489,0.01223847534645435,0.048611111098254195
150,121.5637608268267,0.0,0.0,4.080390570771887,0.01223847534645435,0.048611111098254195
151,122.5637608268267,0.0,0.0,4.091967323997976,0.01223847534645435,0.048611111098254195
152,123.5637608268267,0.0,0.0,4.099607703294914,0.01223847534645435,0.048611111098254195
153,124.5637608268267,0.0,0.0,4.100556320621723,0.01223847534645435,0.048611111098254195
154,125.5637608268267,0.0,0.0,4.095978256331478,0.01223847534645435,0.048611111098254195
155,126.5637608268267,0.0,0.0,4.1015314238663105,0.01223847534645435,0.048611111098254195
156,127.5637608268267,0.0,0.0,4.104124127348497,0.01223847534645435,0.048611111098254195
157,128.5637608268267,0.0,0.0,4.096352371505837,0.01223847534645435,0.048611111098254195
158,129.5637608268267,0.0,0.0,4.084436863066572,0.01223847534645435,0.048611111098254195
159,130.5637608268267,0.0,0.0,4.0975049534421615,0.01223847534645435,0.048611111098254195
160,131.5637608268267,0.0,0.0,4.105187758561152,0.01223847534645435,0.048611111098254195
161,132.5637608268267,0.0,0.0,4.098350915356128,0.01223847534645435,0.048611111098254195
162,133.5637608268267,0.0,0.0,4.098149747067737,0.01223847534645435,0.048611111098254195
163,134.5637608268267,0.0,0.0,4.089079944106243,0.01223847534645435,0.048611111098254195
164,135.5637608268267,0.0,0.0,4.10007566147773,0.01223847534645435,0.048611111098254195
165,136.5637608268267,0.0,0.0,4.103335714089589,0.01223847534645435,0.048611111098254195
166,137.5637608268267,0.0,0.0,4.085085136889478,0.01223847534645435,0.048611111098254195
167,138.5637608268267,0.0,0.0,4.0838259003696376,0.01223847534645435,0.048611111098254195
168,139.5637608268267,0.0,0.0,4.086553661789837,0.01223847534645435,0.048611111098254195
169,140.5637608268267,0.0,0.0,4.109005025112368,0.01223847534645435,0.048611111098254195
170,141.5637608268267,0.0,0.0,4.093275663487398,0.01223847534645435,0.048611111098254195
171,142.5637608268267,0.0,0.0,4.0948929970835,0.01223847534645435,0.048611111098254195
172,143.5637608268267,0.0,0.0,4.111133102717531,0.01223847534645435,0.048611111098254195
173,144.5637608268267,0.0,0.0,4.092152318252378,0.01223847534645435,0.048611111098254195
174,145.5637608268267,0.0,0.0,4.088544697401762,0.01223847534645435,0.048611111098254195
175,146.5637608268267,0.0,0.0,4.097158300284301,0.01223847534645435,0.048611111098254195
176,147.5637608268267,0.0,0.0,4.091442269785524,0.01223847534645435,0.048611111098254195
177,148.5637608268267,0.0,0.0,4.103030249374386,0.01223847534645435,0.048611111098254195
178,149.5637608268267,0.0,0.0,4.095049148582017,0.01223847534645435,0.048611111098254195
179,150.5637608268267,0.0,0.0,4.100640407004152,0.01223847534645435,0.048611111098254195
180,151.5637608268267,0.0,0.0,4.089044486308269,0.01223847534645435,0.048611111098254195
181,152.5637608268267,0.0,0.0,4.103763591071831,0.01223847534645435,0.048611111098254195
182,153.5637608268267,0.0,0.0,4.088674467824427,0.01223847534645435,0.048611111098254195
183,154.5637608268267,0.0,0.0,4.077988099066316,0.01223847534645435,0.048611111098254195
184,155.5637608268267,0.0,0.0,4.101586368968642,0.01223847534645435,0.048611111098254195
185,156.5637608268267,0.0,0.0,4.07699879784316,0.01223847534645435,0.048611111098254195
186,157.5637608268267,0.0,0.0,4.0870408435278,0.01223847534645435,0.048611111098254195
187,158.5637608268267,0.0,0.0,4.113590329478165,0.01223847534645435,0.048611111098254195
188,159.5637608268267,0.0,0.0,4.078105335570091,0.01223847534645435,0.048611111098254195
189,160.5637608268267,0.0,0.0,4.083511744978153,0.01223847534645435,0.048611111098254195
190,161.5637608268267,0.0,0.0,4.084811372216593,0.01223847534645435,0.048611111098254195
191,162.5637608268267,0.0,0.0,4.095831161893915,0.01223847534645435,0.048611111098254195
192,163.5637608268267,0.0,0.0,4.0879109333149986,0.01223847534645435,0.048611111098254195
193,164.5637608268267,0.0,0.0,4.1127381455418,0.01223847534645435,0.048611111098254195
194,165.5637608268267,0.0,0.0,4.098425523716922,0.01223847534645435,0.048611111098254195
195,166.5637608268267,0.0,0.0,4.087944645898783,0.01223847534645435,0.048611111098254195
196,167.5637608268267,0.0,0.0,4.091670836398583,0.01223847534645435,0.048611111098254195
197,168.5637608268267,0.0,0.0,4.096378721313448,0.01223847534645435,0.048611111098254195
198,169.5637608268267,0.0,0.0,4.0923217450859335,0.01223847534645435,0.048611111098254195
199,170.5637608268267,0.0,0.0,4.079621049412778,0.01223847534645435,0.048611111098254195
200,171.5637608268267,0.0,0.0,4.099665848017108,0.01223847534645435,0.048611111098254195
201,172.5637608268267,0.0,0.0,4.092651925703113,0.01223847534645435,0.048611111098254195
202,173.5637608268267,0.0,0.0,4.094751302553343,0.01223847534645435,0.048611111098254195
203,174.5637608268267,0.0,0.0,4.077169278286974,0.01223847534645435,0.048611111098254195
204,175.5637608268267,0.0,0.0,4.099773141284117,0.01223847534645435,0.048611111098254195
205,176.5637608268267,0.0,0.0,4.102906259650016,0.01223847534645435,0.048611111098254195
206,177.5637608268267,0.0,0.0,4.096257150368394,0.01223847534645435,0.048611111098254195
207,178.5637608268267,0.0,0.0,4.093390567403296,0.01223847534645435,0.048611111098254195
208,179.5637608268267,0.0,0.0,4.116265997613414,0.01223847534645435,0.048611111098254195
209,180.5637608268267,0.0,0.0,4.095514603886919,0.01223847534645435,0.048611111098254195
210,181.5637608268267,0.0,0.0,4.083590862644463,0.01223847534645435,0.048611111098254195
211,182.5637608268267,0.0,0.0,4.104547624643333,0.01223847534645435,0.048611111098254195
212,183.5637608268267,0.0,0.0,4.097739740572604,0.01223847534645435,0.048611111098254195
213,184.5637608268267,0.0,0.0,4.091635074176273,0.01223847534645435,0.048611111098254195
214,185.5637608268267,0.0,0.0,4.096075016275545,0.01223847534645435,0.048611111098254195
215,186.5637608268267,0.0,0.0,4.0940787259957965,0.01223847534645435,0.048611111098254195
216,187.5637608268267,0.0,0.0,4.108592826500297,0.01223847534645435,0.048611111098254195
217,188.5637608268267,0.0,0.0,4.094142720352651,0.01223847534645435,0.048611111098254195
218,189.5637608268267,0.0,0.0,4.102300590917717,0.01223847534645435,0.048611111098254195
219,190.5637608268267,0.0,0.0,4.107634255602287,0.01223847534645435,0.048611111098254195
220,191.5637608268267,0.0,0.0,4.088547448461379,0.01223847534645435,0.048611111098254195
221,192.5637608268267,0.0,0.0,4.108454131383551,0.01223847534645435,0.048611111098254195
222,193.5637608268267,0.0,0.0,4.084360273783483,0.01223847534645435,0.048611111098254195
223,194.5637608268267,0.0,0.0,4.103588253047191,0.01223847534645435,0.048611111098254195
224,195.5637608268267,0.0,0.0,4.088413945570178,0.01223847534645435,0.048611111098254195
225,196.5637608268267,0.0,0.0,4.111444583296008,0.01223847534645435,0.048611111098254195
226,197.5637608268267,0.0,0.0,4.107366627109753,0.01223847534645435,0.048611111098254195
227,198.5637608268267,0.0,0.0,4.109368867545554,0.01223847534645435,0.048611111098254195
228,199.5637608268267,0.0,0.0,4.08449320781759,0.01223847534645435,0.048611111098254195
229,200.5637608268267,0.0,0.0,4.0903380368123,0.01223847534645435,0.048611111098254195
230,201.5637608268267,0.0,0.0,4.08779467856537,0.01223847534645435,0.048611111098254195
231,202.5637608268267,0.0,0.0,4.098677603154652,0.01223847534645435,0.048611111098254195
232,203.5637608268267,0.0,0.0,4.097377183895535,0.01223847534645435,0.048611111098254195
233,204.5637608268267,0.0,0.0,4.088447160610984,0.01223847534645435,0.048611111098254195
234,205.5637608268267,0.0,0.0,4.0941115512151764,0.01223847534645435,0.048611111098254195
235,206.5637608268267,0.0,0.0,4.109272443038116,0.01223847534645435,0.048611111098254195
236,207.5637608268267,0.0,0.0,4.1008427473055065,0.01223847534645435,0.048611111098254195
237,208.5637608268267,0.0,0.0,4.101168655428467,0.01223847534645435,0.048611111098254195
238,209.5637608268267,0.0,0.0,4.099673489914761,0.01223847534645435,0.048611111098254195
239,210.5637608268267,0.0,0.0,4.094951369922613,0.01223847534645435,0.048611111098254195
240,211.5637608268267,0.0,0.0,4.082046767759967,0.01223847534645435,0.048611111098254195
241,212.5637608268267,0.0,0.0,4.090604299763102,0.01223847534645435,0.048611111098254195
242,213.5637608268267,0.0,0.0,4.083159478937847,0.01223847534645435,0.048611111098254195
243,214.5637608268267,0.0,0.0,4.105850068474733,0.01223847534645435,0.048611111098254195
244,215.5637608268267,0.0,0.0,4.089628415559881,0.01223847534645435,0.048611111098254195
245,216.5637608268267,0.0,0.0,4.096528974681074,0.01223847534645435,0.048611111098254195
246,217.5637608268267,0.0,0.0,4.081772947487339,0.01223847534645435,0.048611111098254195
247,218.5637608268267,0.0,0.0,4.097594489674516,0.01223847534645435,0.048611111098254195
248,219.5637608268267,0.0,0.0,4.081383728405376,0.01223847534645435,0.048611111098254195
249,220.5637608268267,0.0,0.0,4.116691760675858,0.01223847534645435,0.048611111098254195
250,221.5637608268267,0.0,0.0,4.110488316364652,0.01223847534645435,0.048611111098254195
251,222.5637608268267,0.0,0.0,4.107661255329081,0.01223847534645435,0.048611111098254195
