,Time [s],Current [A],Power [W],Voltage [V],Capacity [Ah],Energy [Wh]
0,0.0,2.1249477530366883,8.749999999999991,4.1185337602032925,0.0,0.0
1,0.01652157729167056,2.1249685980978748,8.750000000000076,4.11752087507766,9.75217581551302e-06,4.015661147281074e-05
2,0.03304315458334112,2.124989410604176,8.750000000005294,4.117597990911252,1.9504447146423673e-05,8.031322294564541e-05
3,0.06608630916668223,2.125030970858784,8.750000000001888,4.118625217049626,3.90093712754443e-05,0.0001606264458912835
4,0.13217261833336447,2.1251137845179295,8.75,4.117605124321291,7.802073976934153e-05,0.000321252891782525
5,0.26434523666672893,2.125278520397301,8.749999999999996,4.116896905716215,0.0001560495249717221,0.0006425057835650079
6,0.5286904733334579,2.125601983401836,8.750000000000009,4.1166046553096,0.0003121308470166184,0.0012850115671299747
7,0.7930357100001868,2.125920650909323,8.75000000591124,4.11531221532048,0.0004682355685719827,0.0019275173511289988
8,1.0573809466669157,2.1262345050559017,8.75000001183589,4.11540868077709,0.0006243633361964181,0.002570023135563065
9,1.5860714200003736,2.1268508857792074,8.750000001782203,4.112741589220056,0.0009367093921720551,0.003855034702954729
10,2.1147618933338315,2.1274497044553646,8.750000009863628,4.11200177848067,0.001249143389739175,0.005140046271533218
11,3.1147618933338315,2.128532464794659,8.750000000000009,4.110544955276926,0.0018404024077376916,0.007570601827088777
12,4.1147618933338315,2.1295537711332395,8.749999984715698,4.1094633792585595,0.002431945121941369,0.010001157378398694
13,5.1147618933338315,2.13051828639792,8.749999963676125,4.10755212172868,0.003023755757051902,0.012431712923864285
14,6.1147618933338315,2.1314310159632024,8.749999943299027,4.106906986961849,0.0036158199281527913,0.014862268463669568
15,7.1147618933338315,2.132295958243483,8.749999998310987,4.103743757948321,0.004208124360998203,0.017292824018755953
16,8.114761893333831,2.1331181150612273,8.749999994123975,4.100680734553188,0.004800657170737433,0.01972337957267928
17,9.114761893333831,2.133901750021365,8.749999986816121,4.099546288664659,0.005393407656854478,0.022153935124572647
18,10.114761893333831,2.1346505964324756,8.750000008792323,4.098058406998681,0.005986366155863499,0.024584490682570518
19,11.114761893333831,2.1353678248966763,8.75000001811267,4.098350734097896,0.006579523885001465,0.02701504624315737
20,12.114761893333831,2.136056253594643,8.749999997868535,4.097884010465474,0.00717287284433331,0.029445601798120852
21,13.114761893333831,2.1367181781706703,8.74999999970356,4.094794104953196,0.0077664056716029405,0.031876157353594066
22,14.114761893333831,2.1373556304578836,8.750000015640627,4.092195163081981,0.008360115568952354,0.03430671291349424
23,15.114761893333831,2.1379704777740356,8.74999999375167,4.091075600422773,0.008953996257222917,0.03673726846731415
24,16.11476189333383,2.138564430438254,8.749999974591233,4.092135381111171,0.009548041932344653,0.03916782401581172
25,17.11476189333383,2.1391388724072895,8.750000021935929,4.089810959649763,0.010142247174680012,0.041598379577460584
26,18.11476189333383,2.1396951237233712,8.750000024775458,4.088687285958391,0.010736606931269837,0.044028935139898216
27,19.11476189333383,2.140234537960363,8.749999984855155,4.087616211422857,0.011331116525147714,0.046459490691246864
28,20.11476189333383,2.140758161725074,8.750000001410998,4.08719792452196,0.011925771570071346,0.04889004624719437
29,21.11476189333383,2.141266888934827,8.750000022839712,4.08578189742442,0.012520567928108798,0.051320601809094285
30,22.11476189333383,2.141761663943062,8.74999999627573,4.085257259280858,0.013115501723648539,0.053751157363615326
31,23.11476189333383,2.142243340048326,8.749999991544325,4.083163861076667,0.013710569318106406,0.05618171291682208
32,24.11476189333383,2.142712603772276,8.75000001569358,4.083027075222321,0.014305767263598706,0.058612268476736964
33,25.11476189333383,2.1431700999027306,8.749999995280524,4.082021849496695,0.014901092291349465,0.06104282403098155
34,26.11476189333383,2.143616514956295,8.749999960171,4.081764760546265,0.015496541323281769,0.0634733795754735
35,27.11476189333383,2.1440524526106643,8.750000014270473,4.081413847308828,0.016092111449006952,0.06590393513499308
36,28.11476189333383,2.1444782712422072,8.750000062646329,4.081114658774132,0.016687799857685343,0.06833449070795039
37,29.11476189333383,2.1448944923328996,8.749999988257485,4.079416270817487,0.017283603883333373,0.07076504626024414
38,30.11476189333383,2.1453016966373557,8.749999952157808,4.078318134213788,0.017879521021288196,0.0731956018025102
39,31.11476189333383,2.1457001283526953,8.750000004888044,4.079757863543186,0.0184755488347195,0.07562615735942355
40,32.114761893333835,2.146090219074212,8.75000000536019,4.076412593533433,0.019071685006684564,0.07805671291646804
41,33.114761893333835,2.1464724284651844,8.749999980408312,4.074347182868314,0.019667927347924892,0.08048726846658145
42,34.114761893333835,2.146847014737119,8.750000009893462,4.074550074062705,0.020264273740907425,0.0829178240248852
43,35.114761893333835,2.1472142148734177,8.75000001732497,4.073544777265098,0.02086072213392782,0.08534837958525325
44,36.114761893333835,2.1475743979475057,8.749999983356144,4.073309940826847,0.021457270577802126,0.08777893513618551
45,37.114761893333835,2.1479278880081303,8.750000002812627,4.072131377807448,0.02205391721335994,0.09020949069252235
46,38.114761893333835,2.1482748584480844,8.750000052227904,4.074009081743881,0.02265066022959552,0.09264004626258565
47,39.114761893333835,2.1486154933659893,8.749999986118032,4.074953836530707,0.02324749786664163,0.0950706018142851
48,40.114761893333835,2.1489501559170927,8.749999915112094,4.072447624953945,0.023844428465507488,0.09750115734626069
49,41.114761893333835,2.149279109684124,8.750000053930648,4.070425463731488,0.024441450440419746,0.09993171291679698
50,42.114761893333835,2.1496023036599627,8.750000128987471,4.070092835573528,0.025038562191436402,0.10236226850818239
51,43.114761893333835,2.1499199080502636,8.749999860242141,4.0685688848602055,0.02563576216589481,0.10479282402491633
52,44.114761893333835,2.150232571269373,8.749999983342171,4.071001619813487,0.026233048991247412,0.1072233795758447
53,45.114761893333835,2.150540160966984,8.750000177669062,4.0684424040078335,0.026830421258182687,0.10965393518075277
54,46.114761893333835,2.150842565816298,8.750000009313377,4.069648050324196,0.027427877526464993,0.11208449073889538
55,47.114761893333835,2.1511402495436,8.749999863618717,4.066865297297491,0.02802541648467155,0.11451504625656725
56,48.114761893333835,2.151433525032094,8.75000002444974,4.064177680580383,0.028623036908291575,0.11694560181891439
57,49.114761893333835,2.151722250182046,8.75000011035994,4.066877348584568,0.02922073753334214,0.11937615740512549
58,50.114761893333835,2.1520064808421937,8.7499999608568,4.065673392638855,0.029818517111353863,0.12180671294980794
59,51.114761893333835,2.1522865684691013,8.749999920393812,4.065174514781077,0.03041637449148417,0.12423726848325066
60,52.114761893333835,2.152562662448918,8.750000048467694,4.06458838985434,0.031014308564386646,0.12666782405226948
61,53.114761893333835,2.1528346905767664,8.750000056911398,4.063277942616293,0.03161231820065797,0.12909837962363374
62,54.114761893333835,2.153102773725558,8.749999951091183,4.065058404440773,0.03221040230447063,0.13152893516560352
63,55.114761893333835,2.153367166137102,8.749999963626205,4.063716821769491,0.03280855985061982,0.13395949071105526
64,56.114761893333835,2.1536279755774874,8.750000111667314,4.0627884982969675,0.03340678984383579,0.1363900462976295
65,57.114761893333835,2.1538850697412664,8.75000003929452,4.0618495392923215,0.034005091252097254,0.1388206018641002
66,58.114761893333835,2.154138684615648,8.749999959502576,4.062572139904178,0.03460346310893493,0.14125115740840646
67,59.114761893333835,2.154388992548179,8.750000013828707,4.060679526550652,0.035201904495753875,0.14368171296780335
68,60.114761893333835,2.1546359793625824,8.750000049213867,4.061053017636554,0.035800414490021255,0.14611226853702944
69,61.114761893333835,2.1548796813351503,8.749999987117576,4.0595848256306475,0.03639899217928102,0.14854282408900654
70,62.114761893333835,2.1551202653245167,8.749999964368271,4.060784180396864,0.03699763669742672,0.1509733796346644
71,63.114761893333835,2.155357826960351,8.750000017718568,4.060822439848641,0.037596347204915705,0.15340393519514176
72,64.11476189333384,2.155592362486553,8.750000026571136,4.059683974271196,0.038195122861161966,0.15583449075807818
73,65.11476189333384,2.155823914275258,8.749999941169813,4.058966637300471,0.03879396283734954,0.15826504629729202
74,66.11476189333384,2.1560526710306287,8.749999956355197,4.058180542918743,0.039392866357080274,0.160695601840724
75,67.11476189333384,2.1562787143422693,8.750000104607185,4.056928037413303,0.03999183266661979,0.16312615742533712
76,68.11476189333384,2.156501904391455,8.750000060624542,4.058205073793957,0.0405908609733952,0.16555671299773284
77,69.11476189333384,2.156722369831803,8.749999926862117,4.057837131169666,0.0411899505205707,0.1679872685329723
78,70.11476189333384,2.1569403339375133,8.74999997255504,4.055869252206078,0.041789100613331125,0.17041782408090428
79,71.11476189333384,2.157155770349432,8.750000068395812,4.057546445605371,0.042388310549539295,0.17284837965545866
80,72.11476189333384,2.1573686105599155,8.750000012129645,4.054956157635178,0.04298757960802816,0.17527893521438354
81,73.11476189333384,2.157578994078749,8.749999941869667,4.056417532234379,0.043586907106383375,0.17770949075379178
82,74.11476189333384,2.15778705709924,8.749999999957485,4.053878543325776,0.044186292400022045,0.18014004630933553
83,75.11476189333384,2.1579927628434454,8.750000048287793,4.05517144344224,0.044785734834145226,0.18257060187830437
84,76.11476189333384,2.15819612506386,8.749999997147967,4.054892226857628,0.04538523375777407,0.18500115743306766
85,77.11476189333384,2.158397247413545,8.749999990203989,4.053640267440006,0.04598478854872228,0.1874317129859021
86,78.11476189333384,2.1585961667704305,8.749999995287432,4.051985477516863,0.0465843985950474,0.18986226854014862
87,79.11476189333384,2.1587929155120418,8.749999995995267,4.055085294379611,0.04718406329380074,0.19229282409459175
88,80.11476189333384,2.158987521147995,8.74999999845725,4.053442097772871,0.047783782049675184,0.19472337964971878
89,81.11476189333384,2.1591800422767755,8.749999997100748,4.053523332718941,0.04838355428364095,0.19715393520446897
90,82.11476189333384,2.1593705210961036,8.750000000733296,4.053323368804612,0.048983379428389866,0.19958449076022822
91,83.11476189333384,2.159558983788869,8.75000000346878,4.052450956596398,0.04958325692388677,0.20201504631674735
92,84.11476189333384,2.1597454681720105,8.749999998546517,4.051286919762,0.05018318622060122,0.20444560187189914
93,85.11476189333384,2.1599300224557934,8.749999996931958,4.051658900370103,0.0507831667823945,0.20687615742660245
94,86.11476189333384,2.160112678034804,8.750000002851962,4.052114513816806,0.05138319808184861,0.20930671298295023
95,87.11476189333384,2.160293458008467,8.750000002776654,4.049375426231112,0.05198327959796207,0.21173726853927707
96,88.11476189333384,2.160472399824616,8.74999999677839,4.049112543622539,0.052583410820135575,0.21416782409393773
97,89.11476189333384,2.1606495435434154,8.749999998363776,4.051328464912053,0.05318359124889764,0.2165983796490388
98,90.11476189333384,2.1608249142683293,8.75000000365607,4.048663577351388,0.05378382039174995,0.21902893520560993
99,91.11476189333384,2.1609985331759716,8.74999999734304,4.049913172862009,0.05438409776207661,0.22145949076042742
100,92.11476189333384,2.16117044007422,8.749999990083007,4.0503620865512975,0.05498442288431945,0.22389004631322826
101,93.11476189333384,2.161340675251654,8.75000000504903,4.0487799675043235,0.05558479529411158,0.22632060187018632
102,94.11476189333384,2.1615092443082013,8.75000001612155,4.049523052597867,0.056185214528641635,0.22875115743022012
103,95.11476189333384,2.1616761580425603,8.749999987142804,4.047176430800764,0.0567856801280979,0.23118171298220422
104,96.11476189333384,2.161841483497971,8.749999974307794,4.046424184055247,0.05738619165129178,0.23361226853062306
105,97.11476189333384,2.162005282148046,8.75000005892285,4.046791453066535,0.05798674867411068,0.23604282410254607
106,98.11476189333384,2.1621674712767227,8.750000069831307,4.046359530772474,0.058587350749465326,0.23847337967749924
107,99.11476189333384,2.162328039516805,8.74999990985753,4.046513707926275,0.05918799742710888,0.2409039352080152
108,100.11476189333384,2.162487208676699,8.749999925278999,4.047017605391312,0.059788688318407966,0.2433344907428149
109,101.11476189333384,2.162644957764052,8.750000071267854,4.045537222549055,0.060389423028897986,0.2457650463181671
110,102.11476189333384,2.162801140002749,8.75000004242725,4.04582525714507,0.0609902011233432,0.24819560188550802
111,103.11476189333384,2.162955841186326,8.749999929471748,4.046040970232667,0.06159102219033939,0.2506261574214724
112,104.11476189333384,2.163109213093354,8.749999976138744,4.0451608949235665,0.0621918858606431,0.2530567129703998
113,105.11476189333384,2.163261202112659,8.750000063662162,4.043726499532534,0.06279279175011884,0.2554872685436393
114,106.11476189333384,2.1634117418384986,8.750000005688047,4.045346597921304,0.0633937394561851,0.25791782410077485
115,107.11476189333384,2.1635609393024526,8.749999988851199,4.0457285325395285,0.06399472860599133,0.26034837965323354
116,108.11476189333384,2.163708810725751,8.749999997559147,4.04234219032529,0.06459575883119292,0.2627789352081111
117,109.11476189333384,2.163855357019585,8.749999999311951,4.042348539899391,0.06519682976369837,0.2652094907634755
118,110.11476189333384,2.1640005967174534,8.749999997543487,4.042628258855914,0.06579794104056431,0.2676400463183487
119,111.11476189333384,2.164144551072065,8.749999997194541,4.042409292145735,0.06639909230475101,0.2700706018731249
120,112.11476189333384,2.164287231954463,8.750000001551586,4.042020555096557,0.06700028320251614,0.2725011574291115
121,113.11476189333384,2.164428661103421,8.749999999818673,4.041765663531152,0.06760151338615597,0.2749317129846167
122,114.11476189333384,2.164568856791869,8.749999998879108,4.0438779946584145,0.0682027825130426,0.2773622685398609
123,115.11476189333384,2.164707832304403,8.750000001162261,4.043181314614567,0.06880409024423827,0.2797928240957393
124,116.11476189333384,2.164845602884858,8.750000000493813,4.0431023325358835,0.06940543624503961,0.282223379651432
125,117.11476189333384,2.1649821876936746,8.749999998662293,4.041217364620203,0.07000682018606565,0.284653935206616
126,118.11476189333384,2.165117606077523,8.74999999733235,4.041042211602867,0.0706082417433094,0.2870844907614306
127,119.11476189333384,2.1652518632530136,8.749999999295992,4.040500335831274,0.07120970059421301,0.2895150463167906
128,120.11476189333384,2.165384976200158,8.749999997494367,4.040449301788491,0.07181119642093527,0.29194560187165014
129,121.11476189333384,2.1655169615195686,8.749999997759302,4.042102300655958,0.07241272891024626,0.29437615742658324
130,122.11476189333384,2.1656478269833577,8.750000001750172,4.040921803515409,0.07301429775107497,0.29680671298262495
131,123.11476189333384,2.165777590248648,8.749999999525159,4.038881225102895,0.07361590263725515,0.29923726853804866
132,124.11476189333384,2.1659062669867217,8.749999998692129,4.03950879241145,0.07421754326697368,0.3016678240932409
133,125.11476189333384,2.1660338672407145,8.750000001381743,4.0394851395350955,0.07481921934120722,0.3040983796491803
134,126.11476189333384,2.166160402393221,8.750000000622064,4.039345909344541,0.07542093056409423,0.30652893520490865
135,127.11476189333384,2.166285888509895,8.74999999843267,4.040128867879501,0.07602267664423587,0.3089594907600288
136,128.11476189333382,2.166410341857691,8.749999997706862,4.039038710726857,0.07662445729475188,0.3113900463149474
137,129.11476189333382,2.1665337654622134,8.749999999561723,4.041027587880888,0.07722627222960249,0.31382060187038113
138,130.11476189333382,2.166656173404107,8.749999997847649,4.041459193670478,0.0778281211666592,0.3162511574253388
139,131.11476189333382,2.1667775793723862,8.749999998104181,4.039621773389653,0.07843000382759596,0.3186817129803678
140,132.11476189333382,2.1668979927040337,8.749999998598001,4.03986395940984,0.07903191993668042,0.3211122685355339
141,133.11476189333382,2.167017424470689,8.749999998356678,4.038656526222928,0.07963386922125562,0.323542824090633
142,134.11476189333382,2.1671358820576976,8.750000000241535,4.0377521297876715,0.0802358514107161,0.3259733796462556
143,135.11476189333382,2.167253380979101,8.749999999388127,4.034800701504888,0.08083786623876585,0.32840393520164124
144,136.11476189333382,2.1673699320101325,8.749999999943322,4.03864782277451,0.08143991344210201,0.330834490757181
145,137.11476189333382,2.167485541906389,8.750000001102652,4.0363038834407226,0.08204199275929823,0.33326504631304293
146,138.11476189333382,2.167600220963061,8.749999999640965,4.03660549598569,0.08264410393178796,0.3356956018684987
147,139.11476189333382,2.1677139824760245,8.749999998907946,4.039746690396738,0.08324624670469796,0.33812615742375096
148,140.11476189333382,2.1678268379073518,8.749999998274728,4.036752164846269,0.08384842082633889,0.3405567129788272
149,141.11476189333382,2.167938789745966,8.749999999645146,4.0357529127347975,0.08445062604571277,0.34298726853428424
150,142.11476189333382,2.1680498496166685,8.749999998164686,4.03825167235923,0.08505286211505074,0.34541782408933
151,143.11476189333382,2.16816002832215,8.749999998455758,4.035844297672323,0.08565512878958467,0.34784837964445653
152,144.11476189333382,2.168269330473955,8.750000001367063,4.03392351344575,0.08625742582582743,0.35027893520039177
153,145.11476189333382,2.1683777679653224,8.749999999532514,4.035950728175413,0.08685975298359558,0.3527094907558175
154,146.11476189333382,2.168485351000185,8.749999999057929,4.0349854251485135,0.08746211002554007,0.3551400463111114
155,147.11476189333382,2.16859208566421,8.750000001131804,4.035640233955381,0.08806449671600236,0.35757060186698136
156,148.11476189333382,2.1686979793464105,8.75000000037456,4.034440052932119,0.08866691282137636,0.36000115742264094
157,149.11476189333382,2.1688030429528284,8.749999998743279,4.034869257033874,0.08926935811108548,0.3624317129778474
158,150.11476189333382,2.1689072872740263,8.749999998385722,4.035611575849446,0.08987183235755049,0.3648622685329545
159,151.11476189333382,2.1690107134989614,8.749999999810882,4.032658487894247,0.09047433533352241,0.36729282408845754
160,152.11476189333382,2.1691133314805593,8.749999998394435,4.034605838240668,0.09107686681448923,0.3697233796435671
161,153.11476189333382,2.1692151504626573,8.749999998655387,4.033976153557299,0.09167942657850664,0.3721539351987491
162,154.11476189333382,2.169316176533886,8.749999999021034,4.033388904072226,0.0922820144053216,0.3745844907540327
163,155.11476189333382,2.16941641711943,8.749999998831036,4.034469877719042,0.09288463007674366,0.3770150463092636
164,156.11476189333382,2.169515877041909,8.750000000193683,4.0337869534440625,0.09348727337592197,0.379445601864873
165,157.11476189333382,2.169614567221655,8.749999999471566,4.034086207076228,0.09408994408903909,0.38187615742028175
166,158.11476189333382,2.1697124948259487,8.750000000013456,4.031267851045193,0.09469264200426852,0.384306712975841
167,159.11476189333382,2.1698096640654887,8.750000000892134,4.033343614074511,0.09529536691095339,0.3867372685316444
168,160.11476189333382,2.169906082038687,8.749999999639263,4.03295030633379,0.09589811860040857,0.3891678240870997
169,161.11476189333382,2.170001758103378,8.749999999127747,4.03252901415308,0.09650089686654839,0.391598379642413
170,162.11476189333382,2.1700967000754074,8.749999998754273,4.030598965655379,0.09710370150545823,0.3940289351976225
