,Time [s],Current [A],Power [W],Voltage [V],Capacity [Ah],Energy [Wh]
0,0.0,0.0,0.0,4.091259343253961,0.0,0.0
1,0.06,0.0,0.0,4.122676621053435,0.0,0.0
2,0.12,0.0,0.0,4.107555840722816,0.0,0.0
3,0.24,0.0,0.0,4.101621762750286,0.0,0.0
4,0.48,0.0,0.0,4.082656647122236,0.0,0.0
5,0.96,0.0,0.0,4.090851934337182,0.0,0.0
6,1.92,0.0,0.0,4.1181245792041,0.0,0.0
7,2.92,0.0,0.0,4.100339044386727,0.0,0.0
8,3.92,0.0,0.0,4.105294229782444,0.0,0.0
9,4.92,0.0,0.0,4.106228313579812,0.0,0.0
10,5.92,0.0,0.0,4.084594236365395,0.0,0.0
11,6.92,0.0,0.0,4.088568405024229,0.0,0.0
12,7.92,0.0,0.0,4.119829443232916,0.0,0.0
13,8.92,0.0,0.0,4.078163057512491,0.0,0.0
14,9.92,0.0,0.0,4.091254949380856,0.0,0.0
15,10.92,0.0,0.0,4.1141183548573546,0.0,0.0
16,11.92,0.0,0.0,4.0879382609002395,0.0,0.0
17,12.92,0.0,0.0,4.112619280366891,0.0,0.0
18,13.92,0.0,0.0,4.089478358941345,0.0,0.0
19,14.92,0.0,0.0,4.109115004122425,0.0,0.0
20,15.92,0.0,0.0,4.070166229405556,0.0,0.0
21,16.92,0.0,0.0,4.09803121215094,0.0,0.0
22,17.92,0.0,0.0,4.102117267608262,0.0,0.0
23,18.92,0.0,0.0,4.0959921196970965,0.0,0.0
24,19.92,0.0,0.0,4.087444536053014,0.0,0.0
25,20.92,0.0,0.0,4.082392351266977,0.0,0.0
26,21.92,0.0,0.0,4.094105272119058,0.0,0.0
27,22.92,0.0,0.0,4.106935263336334,0.0,0.0
28,23.92,0.0,0.0,4.110103019645118,0.0,0.0
29,24.92,0.0,0.0,4.101945514758271,0.0,0.0
30,25.92,0.0,0.0,4.102237595283379,0.0,0.0
31,26.92,0.0,0.0,4.100196114617181,0.0,0.0
32,27.92,0.0,0.0,4.101371419330818,0.0,0.0
33,28.92,0.0,0.0,4.091443654212314,0.0,0.0
34,29.92,0.0,0.0,4.107032304993355,0.0,0.0
35,30.92,0.0,0.0,4.094802692953659,0.0,0.0
36,31.92,0.0,0.0,4.079341167013322,0.0,0.0
37,32.92,0.0,0.0,4.094652906396346,0.0,0.0
38,33.92,0.0,0.0,4.108467754023179,0.0,0.0
39,34.92,0.0,0.0,4.06489216721048,0.0,0.0
40,35.92,0.0,0.0,4.083443407734253,0.0,0.0
41,36.92,0.0,0.0,4.095890212765276,0.0,0.0
42,37.92,0.0,0.0,4.079800245417739,0.0,0.0
43,38.92,0.0,0.0,4.102297305413877,0.0,0.0
44,39.92,0.0,0.0,4.103193780409879,0.0,0.0
45,40.92,0.0,0.0,4.117637436582614,0.0,0.0
46,41.92,0.0,0.0,4.098507889602051,0.0,0.0
47,42.92,0.0,0.0,4.088066046576354,0.0,0.0
48,43.92,0.0,0.0,4.093724899743228,0.0,0.0
49,44.92,0.0,0.0,4.092804661273685,0.0,0.0
50,45.92,0.0,0.0,4.099223879097782,0.0,0.0
51,46.92,0.0,0.0,4.092298903350835,0.0,0.0
52,47.92,0.0,0.0,4.085500544590382,0.0,0.0
53,48.92,0.0,0.0,4.115900602421344,0.0,0.0
54,49.92,0.0,0.0,4.097473184362108,0.0,0.0
55,50.92,0.0,0.0,4.1099442540850255,0.0,0.0
56,51.92,0.0,0.0,4.0927446169545725,0.0,0.0
57,52.92,0.0,0.0,4.075883391591463,0.0,0.0
58,53.92,0.0,0.0,4.1041916010922455,0.0,0.0
59,54.92,0.0,0.0,4.101450408777813,0.0,0.0
60,55.92,0.0,0.0,4.110321035054924,0.0,0.0
61,56.92,0.0,0.0,4.101067137716404,0.0,0.0
62,57.92,0.0,0.0,4.079435288412419,0.0,0.0
63,58.92,0.0,0.0,4.087432645706141,0.0,0.0
64,59.92,0.0,0.0,4.08833757956312,0.0,0.0
65,60.0,0.0,0.0,4.092175723421538,0.0,0.0
66,60.00000000000001,8.958550963200047,35.009999997923,3.8900118746497414,1.768175919399567e-17,6.910028104857031e-17
67,60.00391562388317,8.95857202065835,35.010000000000005,3.921931138319518,9.743999600877132e-06,3.807944226379494e-05
68,60.007831247766326,8.958593051474923,35.010000000000964,3.9194506431610106,1.9488022076394265e-05,7.615888452752184e-05
69,60.01566249553265,8.958635018728327,35.00999999987178,3.9225267407073456,3.897615832076829e-05,0.0001523177690547637
70,60.0313249910653,8.958718508925198,35.009999999999984,3.8978658513007196,7.795279404973074e-05,0.00030463553810973606
71,60.06264998213059,8.958884467903061,35.00999999999999,3.9144958662213387,0.00015590750958084974,0.0006092710762196808
72,60.125299964261174,8.959212081427388,35.00999999999997,3.913488923726428,0.00031182264202684007,0.0012185421524396392
73,60.18794994639176,8.959537487139773,35.0100000006239,3.9120912043998426,0.0004677434374345155,0.0018278132286704556
74,60.31324991065293,8.960181596756309,35.01,3.9215232797538464,0.0007796074468364964,0.003046355381110304
75,60.438549874914095,8.960820021706393,35.01000000317156,3.9075132644822643,0.0010914936769672076,0.004264897533660541
76,60.56384983917526,8.961453492632916,35.01000000552606,3.8966574754944348,0.001403401955399156,0.005483439686292727
77,60.814449767697596,8.962710657385598,35.01000000141558,3.889478404675263,0.002027306024873376,0.007920523991270963
78,61.06504969621993,8.963955341424295,35.009999995065286,3.898836393321939,0.002651296738161798,0.01035760829580715
79,61.5662495532646,8.96641282013936,35.00999999999997,3.9082789187187097,0.0038996203002888328,0.01523177690556654
80,62.067449410309266,8.968842316450619,35.00999996919691,3.903354762323567,0.005148282102194726,0.020105945511037466
81,62.56864926735393,8.97125648310847,35.00999994660139,3.912342403825852,0.006397280009651675,0.02498011411336259
82,63.0698491243986,8.97366529328965,35.00999993699888,3.898233901868627,0.007646613276919306,0.02985428271435083
83,63.57104898144327,8.976076617800484,35.01000000371888,3.9046542212270343,0.00889628225404808,0.03472845132462798
84,64.07224883848794,8.978494908971781,35.010000050203914,3.9005206257685234,0.010146287910951674,0.03960261994137687
85,65.07224883848794,8.983357080664216,35.010000000999426,3.8911693051092477,0.012641664877802843,0.049327619941654494
86,66.07224883848794,8.988288217141093,35.010000323307324,3.881975522306667,0.01513841160478648,0.05905262003146209
87,67.07224883848794,8.993297774173897,35.00999999902236,3.89025135704191,0.01763654987539034,0.06877762003119052
88,68.07224883848794,8.998387075589408,35.010000756612634,3.8984261301701353,0.02013610184083184,0.0785026202413607
89,69.07224883848794,9.003544140289895,35.00999937625804,3.8833238851249012,0.0226370863242457,0.08822762006809903
90,70.0,9.008389231830417,35.01000008220695,3.878431619894916,0.024958626205685543,0.0972500001349893
91,70.00000000000001,0.0,0.0,4.062705197279517,0.024958626205685543,0.0972500001349893
92,70.01472272460285,0.0,0.0,4.070779113702814,0.024958626205685543,0.0972500001349893
93,70.02944544920568,0.0,0.0,4.073522449501291,0.024958626205685543,0.0972500001349893
94,70.05889089841136,0.0,0.0,4.064567483023883,0.024958626205685543,0.0972500001349893
95,70.11778179682271,0.0,0.0,4.062938207256145,0.024958626205685543,0.0972500001349893
96,70.17667269523406,0.0,0.0,4.079038028663747,0.024958626205685543,0.0972500001349893
97,70.23556359364541,0.0,0.0,4.088944587902123,0.024958626205685543,0.0972500001349893
98,70.29445449205676,0.0,0.0,4.066500328301465,0.024958626205685543,0.0972500001349893
99,70.41223628887947,0.0,0.0,4.08111905923096,0.024958626205685543,0.0972500001349893
100,70.53001808570218,0.0,0.0,4.069375982388892,0.024958626205685543,0.0972500001349893
101,70.6477998825249,0.0,0.0,4.064071632859007,0.024958626205685543,0.0972500001349893
102,70.8833634761703,0.0,0.0,4.075338206998919,0.024958626205685543,0.0972500001349893
103,71.11892706981571,0.0,0.0,4.081006196665649,0.024958626205685543,0.0972500001349893
104,71.59005425710653,0.0,0.0,4.052659407316508,0.024958626205685543,0.0972500001349893
105,72.00262541605824,0.0,0.0,4.059204522238662,0.024958626205685543,0.0972500001349893
106,72.41519657500994,0.0,0.0,4.088249308887741,0.024958626205685543,0.0972500001349893
107,72.82776773396165,0.0,0.0,4.090500658213334,0.024958626205685543,0.0972500001349893
108,73.24033889291336,0.0,0.0,4.076481223681894,0.024958626205685543,0.0972500001349893
109,73.65291005186506,0.0,0.0,4.075321596024212,0.024958626205685543,0.0972500001349893
110,74.06548121081677,0.0,0.0,4.08115213586463,0.024958626205685543,0.0972500001349893
111,74.89062352872018,0.0,0.0,4.083922588006198,0.024958626205685543,0.0972500001349893
112,75.7157658466236,0.0,0.0,4.084953477753621,0.024958626205685543,0.0972500001349893
113,76.54090816452701,0.0,0.0,4.084858539671544,0.024958626205685543,0.0972500001349893
114,77.36605048243042,0.0,0.0,4.084409425825233,0.024958626205685543,0.0972500001349893
115,78.19119280033384,0.0,0.0,4.07850634630132,0.024958626205685543,0.0972500001349893
116,79.01633511823725,0.0,0.0,4.0996155045922595,0.024958626205685543,0.0972500001349893
117,79.84147743614066,0.0,0.0,4.073035102447864,0.024958626205685543,0.0972500001349893
118,80.66661975404408,0.0,0.0,4.084141306431273,0.024958626205685543,0.0972500001349893
119,81.49176207194749,0.0,0.0,4.077293224161552,0.024958626205685543,0.0972500001349893
120,82.3169043898509,0.0,0.0,4.059170897542747,0.024958626205685543,0.0972500001349893
121,83.3169043898509,0.0,0.0,4.079663763669204,0.024958626205685543,0.0972500001349893
122,84.3169043898509,0.0,0.0,4.095085753922297,0.024958626205685543,0.0972500001349893
123,85.3169043898509,0.0,0.0,4.087357398556786,0.024958626205685543,0.0972500001349893
124,86.3169043898509,0.0,0.0,4.078192639695583,0.024958626205685543,0.0972500001349893
125,87.3169043898509,0.0,0.0,4.086157861049232,0.024958626205685543,0.0972500001349893
126,88.3169043898509,0.0,0.0,4.08608076929054,0.024958626205685543,0.0972500001349893
127,89.3169043898509,0.0,0.0,4.08210811998584,0.024958626205685543,0.0972500001349893
128,90.3169043898509,0.0,0.0,4.0793178930529645,0.024958626205685543,0.0972500001349893
129,91.3169043898509,0.0,0.0,4.087813828900375,0.024958626205685543,0.0972500001349893
130,92.3169043898509,0.0,0.0,4.084614421611624,0.024958626205685543,0.0972500001349893
131,93.3169043898509,0.0,0.0,4.090428722469989,0.024958626205685543,0.0972500001349893
132,94.3169043898509,0.0,0.0,4.066893969901988,0.024958626205685543,0.0972500001349893
133,95.3169043898509,0.0,0.0,4.100829057015741,0.024958626205685543,0.0972500001349893
134,96.3169043898509,0.0,0.0,4.095323923169031,0.024958626205685543,0.0972500001349893
135,97.3169043898509,0.0,0.0,4.09773443963106,0.024958626205685543,0.0972500001349893
136,98.3169043898509,0.0,0.0,4.082585334715156,0.024958626205685543,0.0972500001349893
137,99.3169043898509,0.0,0.0,4.0760719317849565,0.024958626205685543,0.0972500001349893
138,100.3169043898509,0.0,0.0,4.10275507029383,0.024958626205685543,0.0972500001349893
139,101.3169043898509,0.0,0.0,4.079236615735944,0.024958626205685543,0.0972500001349893
140,102.3169043898509,0.0,0.0,4.090562046618456,0.024958626205685543,0.0972500001349893
141,103.3169043898509,0.0,0.0,4.098051930245519,0.024958626205685543,0.0972500001349893
142,104.3169043898509,0.0,0.0,4.099903761628322,0.024958626205685543,0.0972500001349893
143,105.3169043898509,0.0,0.0,4.094038105196553,0.024958626205685543,0.0972500001349893
144,106.3169043898509,0.0,0.0,4.105307003332578,0.024958626205685543,0.0972500001349893
145,107.3169043898509,0.0,0.0,4.076723597017692,0.024958626205685543,0.0972500001349893
146,108.3169043898509,0.0,0.0,4.0869345641183035,0.024958626205685543,0.0972500001349893
147,109.3169043898509,0.0,0.0,4.091588734148402,0.024958626205685543,0.0972500001349893
148,110.3169043898509,0.0,0.0,4.098778005853835,0.024958626205685543,0.0972500001349893
149,111.3169043898509,0.0,0.0,4.090966281435335,0.024958626205685543,0.0972500001349893
150,112.3169043898509,0.0,0.0,4.104082594555295,0.024958626205685543,0.0972500001349893
151,113.3169043898509,0.0,0.0,4.094074491767245,0.024958626205685543,0.0972500001349893
152,114.3169043898509,0.0,0.0,4.0853856287609105,0.024958626205685543,0.0972500001349893
153,115.3169043898509,0.0,0.0,4.116804089031359,0.024958626205685543,0.0972500001349893
154,116.3169043898509,0.0,0.0,4.102873415129164,0.024958626205685543,0.0972500001349893
155,117.3169043898509,0.0,0.0,4.1083128547944545,0.024958626205685543,0.0972500001349893
156,118.3169043898509,0.0,0.0,4.083850782946645,0.024958626205685543,0.0972500001349893
157,119.3169043898509,0.0,0.0,4.08619964387698,0.024958626205685543,0.0972500001349893
158,120.3169043898509,0.0,0.0,4.098874873218451,0.024958626205685543,0.0972500001349893
159,121.3169043898509,0.0,0.0,4.097395084084633,0.024958626205685543,0.0972500001349893
160,122.3169043898509,0.0,0.0,4.1061235380082515,0.024958626205685543,0.0972500001349893
161,123.3169043898509,0.0,0.0,4.10117197802754,0.024958626205685543,0.0972500001349893
162,124.3169043898509,0.0,0.0,4.108070420704679,0.024958626205685543,0.0972500001349893
163,125.3169043898509,0.0,0.0,4.075074617665583,0.024958626205685543,0.0972500001349893
164,126.3169043898509,0.0,0.0,4.086977580457928,0.024958626205685543,0.0972500001349893
165,127.3169043898509,0.0,0.0,4.081215473511126,0.024958626205685543,0.0972500001349893
166,128.3169043898509,0.0,0.0,4.09978642325495,0.024958626205685543,0.0972500001349893
167,129.3169043898509,0.0,0.0,4.07442816427778,0.024958626205685543,0.0972500001349893
168,130.3169043898509,0.0,0.0,4.098656159392588,0.024958626205685543,0.0972500001349893
169,131.3169043898509,0.0,0.0,4.106206500820796,0.024958626205685543,0.0972500001349893
170,132.3169043898509,0.0,0.0,4.099581351399648,0.024958626205685543,0.0972500001349893
171,133.3169043898509,0.0,0.0,4.10194628862054,0.024958626205685543,0.0972500001349893
172,134.3169043898509,0.0,0.0,4.093649021392058,0.024958626205685543,0.0972500001349893
173,135.3169043898509,0.0,0.0,4.093203696113416,0.024958626205685543,0.0972500001349893
174,136.3169043898509,0.0,0.0,4.106016188379807,0.024958626205685543,0.0972500001349893
175,137.3169043898509,0.0,0.0,4.101585705286599,0.024958626205685543,0.0972500001349893
176,138.3169043898509,0.0,0.0,4.082888455580111,0.024958626205685543,0.0972500001349893
177,139.3169043898509,0.0,0.0,4.103729168989521,0.024958626205685543,0.0972500001349893
178,140.3169043898509,0.0,0.0,4.102163884944697,0.024958626205685543,0.0972500001349893
179,141.3169043898509,0.0,0.0,4.085976825673948,0.024958626205685543,0.0972500001349893
180,142.3169043898509,0.0,0.0,4.087979743760026,0.024958626205685543,0.0972500001349893
181,143.3169043898509,0.0,0.0,4.066575118674815,0.024958626205685543,0.0972500001349893
182,144.3169043898509,0.0,0.0,4.082357120879851,0.024958626205685543,0.0972500001349893
183,145.3169043898509,0.0,0.0,4.089772168144111,0.024958626205685543,0.0972500001349893
184,146.3169043898509,0.0,0.0,4.0757525102298615,0.024958626205685543,0.0972500001349893
185,147.3169043898509,0.0,0.0,4.09229542439228,0.024958626205685543,0.0972500001349893
186,148.3169043898509,0.0,0.0,4.095471350278906,0.024958626205685543,0.0972500001349893
187,149.3169043898509,0.0,0.0,4.099659204310219,0.024958626205685543,0.0972500001349893
188,150.3169043898509,0.0,0.0,4.108485151960653,0.024958626205685543,0.0972500001349893
189,151.3169043898509,0.0,0.0,4.098540300933217,0.024958626205685543,0.0972500001349893
190,152.3169043898509,0.0,0.0,4.091667453676831,0.024958626205685543,0.0972500001349893
191,153.3169043898509,0.0,0.0,4.114457650271308,0.024958626205685543,0.0972500001349893
192,154.3169043898509,0.0,0.0,4.0920146323193345,0.024958626205685543,0.0972500001349893
193,155.3169043898509,0.0,0.0,4.087524223706428,0.024958626205685543,0.0972500001349893
194,156.3169043898509,0.0,0.0,4.093455241902999,0.024958626205685543,0.0972500001349893
195,157.3169043898509,0.0,0.0,4.0965591157252605,0.024958626205685543,0.0972500001349893
196,158.3169043898509,0.0,0.0,4.100108973309622,0.024958626205685543,0.0972500001349893
197,159.3169043898509,0.0,0.0,4.087826296661416,0.024958626205685543,0.0972500001349893
198,160.3169043898509,0.0,0.0,4.095455104306662,0.024958626205685543,0.0972500001349893
199,161.3169043898509,0.0,0.0,4.093318913543512,0.024958626205685543,0.0972500001349893
200,162.3169043898509,0.0,0.0,4.093146082392417,0.024958626205685543,0.0972500001349893
201,163.3169043898509,0.0,0.0,4.065287953865652,0.024958626205685543,0.0972500001349893
202,164.3169043898509,0.0,0.0,4.09130857476055,0.024958626205685543,0.0972500001349893
203,165.3169043898509,0.0,0.0,4.104108580605088,0.024958626205685543,0.0972500001349893
204,166.3169043898509,0.0,0.0,4.104112058969149,0.024958626205685543,0.0972500001349893
205,167.3169043898509,0.0,0.0,4.09927959849292,0.024958626205685543,0.0972500001349893
206,168.3169043898509,0.0,0.0,4.093221634094075,0.024958626205685543,0.0972500001349893
207,169.3169043898509,0.0,0.0,4.105512938705217,0.024958626205685543,0.0972500001349893
208,170.3169043898509,0.0,0.0,4.100803183070097,0.024958626205685543,0.0972500001349893
209,171.3169043898509,0.0,0.0,4.0907027874576,0.024958626205685543,0.0972500001349893
210,172.3169043898509,0.0,0.0,4.082186531913424,0.024958626205685543,0.0972500001349893
211,173.3169043898509,0.0,0.0,4.094551058960261,0.024958626205685543,0.0972500001349893
212,174.3169043898509,0.0,0.0,4.069134142231707,0.024958626205685543,0.0972500001349893
213,175.3169043898509,0.0,0.0,4.099443650648326,0.024958626205685543,0.0972500001349893
214,176.3169043898509,0.0,0.0,4.074212822065349,0.024958626205685543,0.0972500001349893
215,177.3169043898509,0.0,0.0,4.091605559408651,0.024958626205685543,0.0972500001349893
216,178.3169043898509,0.0,0.0,4.1087268036706925,0.024958626205685543,0.0972500001349893
217,179.3169043898509,0.0,0.0,4.086702974133766,0.024958626205685543,0.0972500001349893
218,180.3169043898509,0.0,0.0,4.106369200877457,0.024958626205685543,0.0972500001349893
219,181.3169043898509,0.0,0.0,4.091819017289742,0.024958626205685543,0.0972500001349893
220,182.3169043898509,0.0,0.0,4.083755571846984,0.024958626205685543,0.0972500001349893
221,183.3169043898509,0.0,0.0,4.1070183710468795,0.024958626205685543,0.0972500001349893
222,184.3169043898509,0.0,0.0,4.086578196171588,0.024958626205685543,0.0972500001349893
223,185.3169043898509,0.0,0.0,4.077635019359607,0.024958626205685543,0.0972500001349893
224,186.3169043898509,0.0,0.0,4.090285115543046,0.024958626205685543,0.0972500001349893
225,187.3169043898509,0.0,0.0,4.09484769699044,0.024958626205685543,0.0972500001349893
226,188.3169043898509,0.0,0.0,4.074764654739492,0.024958626205685543,0.0972500001349893
227,189.3169043898509,0.0,0.0,4.09928442006648,0.024958626205685543,0.0972500001349893
228,190.3169043898509,0.0,0.0,4.073688635061707,0.024958626205685543,0.0972500001349893
229,191.3169043898509,0.0,0.0,4.113790821765033,0.024958626205685543,0.0972500001349893
230,192.3169043898509,0.0,0.0,4.102849130988557,0.024958626205685543,0.0972500001349893
231,193.3169043898509,0.0,0.0,4.104960434367613,0.024958626205685543,0.0972500001349893
232,194.3169043898509,0.0,0.0,4.099370362341072,0.024958626205685543,0.0972500001349893
233,195.3169043898509,0.0,0.0,4.093937346669275,0.024958626205685543,0.0972500001349893
234,196.3169043898509,0.0,0.0,4.080115777350949,0.024958626205685543,0.0972500001349893
235,197.3169043898509,0.0,0.0,4.089945678331833,0.024958626205685543,0.0972500001349893
236,198.3169043898509,0.0,0.0,4.0832728076348905,0.024958626205685543,0.0972500001349893
237,199.3169043898509,0.0,0.0,4.096214519729481,0.024958626205685543,0.0972500001349893
238,200.3169043898509,0.0,0.0,4.083272520517845,0.024958626205685543,0.0972500001349893
239,201.3169043898509,0.0,0.0,4.092785864552259,0.024958626205685543,0.0972500001349893
240,202.3169043898509,0.0,0.0,4.095365207836664,0.024958626205685543,0.0972500001349893
241,203.3169043898509,0.0,0.0,4.097017870776166,0.024958626205685543,0.0972500001349893
242,204.3169043898509,0.0,0.0,4.094723546645302,0.024958626205685543,0.0972500001349893
243,205.3169043898509,0.0,0.0,4.1045566841034065,0.024958626205685543,0.0972500001349893
244,206.3169043898509,0.0,0.0,4.089787035840185,0.024958626205685543,0.0972500001349893
245,207.3169043898509,0.0,0.0,4.08738444620412,0.024958626205685543,0.0972500001349893
246,208.3169043898509,0.0,0.0,4.084971850872625,0.024958626205685543,0.0972500001349893
247,209.3169043898509,0.0,0.0,4.09998769035187,0.024958626205685543,0.0972500001349893
248,210.3169043898509,0.0,0.0,4.085578173097916,0.024958626205685543,0.0972500001349893
249,211.3169043898509,0.0,0.0,4.099156129273926,0.024958626205685543,0.0972500001349893
250,212.3169043898509,0.0,0.0,4.097126607681323,0.024958626205685543,0.0972500001349893
251,213.3169043898509,0.0,0.0,4.0781509667874065,0.024958626205685543,0.0972500001349893
