,Time [s],Current [A],Power [W],Voltage [V],Capacity [Ah],Energy [Wh]
0,0.0,0.0,0.0,4.09574402087919,0.0,0.0
1,0.06,0.0,0.0,4.0958588148852435,0.0,0.0
2,0.12,0.0,0.0,4.098576968865463,0.0,0.0
3,0.24,0.0,0.0,4.095468064743896,0.0,0.0
4,0.48,0.0,0.0,4.097151301559698,0.0,0.0
5,0.96,0.0,0.0,4.095982582970302,0.0,0.0
6,1.92,0.0,0.0,4.0954117870569275,0.0,0.0
7,2.92,0.0,0.0,4.097044715851342,0.0,0.0
8,3.92,0.0,0.0,4.096976254554364,0.0,0.0
9,4.92,0.0,0.0,4.098016589273961,0.0,0.0
10,5.92,0.0,0.0,4.096271023926767,0.0,0.0
11,6.92,0.0,0.0,4.096716979735995,0.0,0.0
12,7.92,0.0,0.0,4.095752723523054,0.0,0.0
13,8.92,0.0,0.0,4.097323047538885,0.0,0.0
14,9.92,0.0,0.0,4.095234103186195,0.0,0.0
15,10.92,0.0,0.0,4.095775642492341,0.0,0.0
16,11.92,0.0,0.0,4.095095116022369,0.0,0.0
17,12.92,0.0,0.0,4.095173406723863,0.0,0.0
18,13.92,0.0,0.0,4.096796055445293,0.0,0.0
19,14.92,0.0,0.0,4.097590927338566,0.0,0.0
20,15.92,0.0,0.0,4.096234631274151,0.0,0.0
21,16.92,0.0,0.0,4.096248608004467,0.0,0.0
22,17.92,0.0,0.0,4.0974697026933145,0.0,0.0
23,18.92,0.0,0.0,4.097980331990634,0.0,0.0
24,19.92,0.0,0.0,4.096318991426448,0.0,0.0
25,20.92,0.0,0.0,4.094720340747935,0.0,0.0
26,21.92,0.0,0.0,4.094332928602828,0.0,0.0
27,22.92,0.0,0.0,4.095915931327291,0.0,0.0
28,23.92,0.0,0.0,4.098269696810197,0.0,0.0
29,24.92,0.0,0.0,4.096157553980783,0.0,0.0
30,25.92,0.0,0.0,4.097114779571498,0.0,0.0
31,26.92,0.0,0.0,4.096737526017707,0.0,0.0
32,27.92,0.0,0.0,4.09735201293757,0.0,0.0
33,28.92,0.0,0.0,4.09696194876288,0.0,0.0
34,29.92,0.0,0.0,4.097907950551533,0.0,0.0
35,30.92,0.0,0.0,4.096313980427496,0.0,0.0
36,31.92,0.0,0.0,4.096743878160561,0.0,0.0
37,32.92,0.0,0.0,4.097323588108645,0.0,0.0
38,33.92,0.0,0.0,4.095718891263485,0.0,0.0
39,34.92,0.0,0.0,4.0978095324775206,0.0,0.0
40,35.92,0.0,0.0,4.097800768420119,0.0,0.0
41,36.92,0.0,0.0,4.0974735450450455,0.0,0.0
42,37.92,0.0,0.0,4.097381793127806,0.0,0.0
43,38.92,0.0,0.0,4.096349379147556,0.0,0.0
44,39.92,0.0,0.0,4.096272537383536,0.0,0.0
45,40.92,0.0,0.0,4.098363710868697,0.0,0.0
46,41.92,0.0,0.0,4.095791876037532,0.0,0.0
47,42.92,0.0,0.0,4.095788964878076,0.0,0.0
48,43.92,0.0,0.0,4.096737024078857,0.0,0.0
49,44.92,0.0,0.0,4.096290049286852,0.0,0.0
50,45.92,0.0,0.0,4.096797545277408,0.0,0.0
51,46.92,0.0,0.0,4.094516863307901,0.0,0.0
52,47.92,0.0,0.0,4.098030180759985,0.0,0.0
53,48.92,0.0,0.0,4.094421574957132,0.0,0.0
54,49.92,0.0,0.0,4.096707957399598,0.0,0.0
55,50.92,0.0,0.0,4.096998661199297,0.0,0.0
56,51.92,0.0,0.0,4.0981631869041575,0.0,0.0
57,52.92,0.0,0.0,4.096139760732297,0.0,0.0
58,53.92,0.0,0.0,4.09774590847582,0.0,0.0
59,54.92,0.0,0.0,4.097022660699185,0.0,0.0
60,55.92,0.0,0.0,4.095269136094946,0.0,0.0
61,56.92,0.0,0.0,4.097320499018547,0.0,0.0
62,57.92,0.0,0.0,4.0956940822062675,0.0,0.0
63,58.92,0.0,0.0,4.096813654506586,0.0,0.0
64,59.92,0.0,0.0,4.096059665161822,0.0,0.0
65,60.0,0.0,0.0,4.096064427039866,0.0,0.0
66,60.00000000000001,23.23790335516176,87.50999986186159,3.764211860952787,4.586534284251513e-17,1.7272109641170312e-16
67,60.00149683599587,23.237965275015995,87.51000000000012,3.7664552866767864,9.662061915135767e-06,3.63855883330108e-05
68,60.00299367199174,23.238028433175923,87.5099999999493,3.7658760410342222,1.932415009061656e-05,7.277117666582774e-05
69,60.00598734398348,23.238154600186945,87.50999999142141,3.7656060396621074,3.8648431359026006e-05,0.00014554235332454277
70,60.011974687966955,23.238405556190315,87.51,3.76656135642715,7.729741127359958e-05,0.0002910847066562403
71,60.0239493759339,23.238904395000326,87.51,3.7667674968825975,0.00015459703039133856,0.0005821694133194626
72,60.0478987518678,23.23989184987373,87.51,3.7673237399606165,0.0003092028377734779,0.0011643388266459073
73,60.071848127801694,23.240869072379624,87.5099999989231,3.766518943226358,0.00046381514623038524,0.0017465082399651878
74,60.119746879669485,23.242804952597595,87.51000000000015,3.764527208921374,0.0007730655204348127,0.0029108470666180794
75,60.167645631537276,23.244722788129867,87.5099999958093,3.764302835759566,0.0010823414118415412,0.00407518589321521
76,60.21554438340507,23.24662847532588,87.50999999267577,3.762755168572943,0.0013916426588144197,0.00523952471977065
77,60.31134188714066,23.250417611638618,87.5100000000001,3.7640744751813657,0.0020103459832602425,0.007568202373076604
78,60.407139390876246,23.25418685641138,87.5099999880427,3.764233361251622,0.002629149608883899,0.009896880026064368
79,60.59873439834742,23.2617167168714,87.50999999999993,3.761033432346307,0.0038671576055953586,0.014554235332676095
80,60.79032940581859,23.269285728727446,87.50999987553367,3.760750292400475,0.005105568431441014,0.019211590632663623
81,60.98192441328976,23.27695462120337,87.50999970080449,3.759154795819477,0.006344387402150898,0.02386894592335192
82,61.17351942076093,23.284774512718794,87.50999961976183,3.757973069415488,0.007583622554020038,0.028526301209727056
83,61.365114428232104,23.292786518961684,87.51000000937752,3.7558113127216477,0.008823284111554724,0.03318365651683786
84,61.748304443174455,23.30950229640414,87.50999966828283,3.7548867696506356,0.011304386481904127,0.04249836709475297
85,62.131494458116805,23.327299401103062,87.5100031550817,3.752408643512285,0.013787383205813394,0.05181307804380877
86,62.514684473059155,23.346272428174217,87.5099996350856,3.7484671655890414,0.01627239945042458,0.06112778861819031
87,62.897874488001506,23.366484218594184,87.51000730907637,3.7446031984528574,0.018759567071778276,0.07044250000940425
88,63.281064502943856,23.387855551908686,87.50999549054956,3.7412562308426645,0.02124900949355756,0.07975721014263444
89,63.66425451788621,23.4104571774246,87.51000000000288,3.7369257560110447,0.023740857670119943,0.08907192075585837
90,64.04744453282855,23.43413805160221,87.51000115381567,3.7338925481875,0.026235226478496163,0.0983866314918959
91,64.4306345477709,23.458853166066824,87.5100007479574,3.7312054037284783,0.028732226004950435,0.10770134218473319
92,65.1970145776556,23.511098077177884,87.50999999998511,3.721845662040473,0.0337373471291198,0.1263307634111773
93,65.9633946075403,23.566527424686864,87.5100103241941,3.71318391000446,0.03875426823801151,0.14496018683547351
94,66.729774637425,23.624547713467038,87.51002189079033,3.705426833616649,0.04378354089986135,0.1635896127221054
95,67.4961546673097,23.68464947840256,87.51002862133491,3.6949685877435803,0.048825608226268795,0.1822190400415581
96,68.4961546673097,23.765438831098784,87.51000189937116,3.6846759559405022,0.05542711901268512,0.2065273739024945
97,69.4961546673097,23.848152202003664,87.50998092851583,3.6695579978648634,0.062051605735463915,0.23083570193819333
98,70.0,23.890415367021227,87.51000000000063,3.6628658562461767,0.06539523747954902,0.24308334223367356
99,70.00000000000001,0.0,0.0,3.9997325551329084,0.06539523747954902,0.24308334223367356
100,70.0040598742098,0.0,0.0,4.000994421165505,0.06539523747954902,0.24308334223367356
101,70.00811974841959,0.0,0.0,4.002050716048393,0.06539523747954902,0.24308334223367356
102,70.01623949683916,0.0,0.0,4.000477512298749,0.06539523747954902,0.24308334223367356
103,70.03247899367832,0.0,0.0,4.0012575894584295,0.06539523747954902,0.24308334223367356
104,70.06495798735665,0.0,0.0,4.0006304462306295,0.06539523747954902,0.24308334223367356
105,70.09743698103497,0.0,0.0,4.003348066737921,0.06539523747954902,0.24308334223367356
106,70.1299159747133,0.0,0.0,3.999164780786868,0.06539523747954902,0.24308334223367356
107,70.16239496839162,0.0,0.0,4.002661756460817,0.06539523747954902,0.24308334223367356
108,70.22735295574827,0.0,0.0,4.00294176506394,0.06539523747954902,0.24308334223367356
109,70.29231094310492,0.0,0.0,4.001926829992845,0.06539523747954902,0.24308334223367356
110,70.42222691781821,0.0,0.0,4.004185006900485,0.06539523747954902,0.24308334223367356
111,70.55214289253149,0.0,0.0,4.006726489016289,0.06539523747954902,0.24308334223367356
112,70.68205886724478,0.0,0.0,4.007222722799927,0.06539523747954902,0.24308334223367356
113,70.81197484195806,0.0,0.0,4.0078731351242,0.06539523747954902,0.24308334223367356
114,70.94189081667135,0.0,0.0,4.008524019030876,0.06539523747954902,0.24308334223367356
115,71.07180679138463,0.0,0.0,4.008704153949107,0.06539523747954902,0.24308334223367356
116,71.3316387408112,0.0,0.0,4.01091852717768,0.06539523747954902,0.24308334223367356
117,71.59147069023777,0.0,0.0,4.015066562705066,0.06539523747954902,0.24308334223367356
118,71.85130263966434,0.0,0.0,4.014788747578508,0.06539523747954902,0.24308334223367356
119,72.11113458909091,0.0,0.0,4.014744994807005,0.06539523747954902,0.24308334223367356
120,72.37096653851748,0.0,0.0,4.017987914174963,0.06539523747954902,0.24308334223367356
121,72.63079848794405,0.0,0.0,4.021034679295913,0.06539523747954902,0.24308334223367356
122,72.89063043737062,0.0,0.0,4.01958564698652,0.06539523747954902,0.24308334223367356
123,73.15046238679719,0.0,0.0,4.020233517802607,0.06539523747954902,0.24308334223367356
124,73.41029433622376,0.0,0.0,4.026471122217432,0.06539523747954902,0.24308334223367356
125,73.9299582350769,0.0,0.0,4.026471838932257,0.06539523747954902,0.24308334223367356
126,74.44962213393003,0.0,0.0,4.027213405755694,0.06539523747954902,0.24308334223367356
127,75.13980498247605,0.0,0.0,4.0320691432156375,0.06539523747954902,0.24308334223367356
128,75.82998783102207,0.0,0.0,4.032476014153527,0.06539523747954902,0.24308334223367356
129,76.52017067956808,0.0,0.0,4.0362308928495345,0.06539523747954902,0.24308334223367356
130,77.2103535281141,0.0,0.0,4.039100553930199,0.06539523747954902,0.24308334223367356
131,77.90053637666011,0.0,0.0,4.041256935373517,0.06539523747954902,0.24308334223367356
132,78.59071922520613,0.0,0.0,4.042982904340261,0.06539523747954902,0.24308334223367356
133,79.28090207375215,0.0,0.0,4.046478263770743,0.06539523747954902,0.24308334223367356
134,79.97108492229816,0.0,0.0,4.047470067829842,0.06539523747954902,0.24308334223367356
135,80.66126777084418,0.0,0.0,4.050329949174886,0.06539523747954902,0.24308334223367356
136,81.35145061939019,0.0,0.0,4.051842028420469,0.06539523747954902,0.24308334223367356
137,82.04163346793621,0.0,0.0,4.0521787157518085,0.06539523747954902,0.24308334223367356
138,82.73181631648222,0.0,0.0,4.053116104064612,0.06539523747954902,0.24308334223367356
139,83.42199916502824,0.0,0.0,4.054968701872452,0.06539523747954902,0.24308334223367356
140,84.11218201357426,0.0,0.0,4.05668191787452,0.06539523747954902,0.24308334223367356
141,84.80236486212027,0.0,0.0,4.058144682463668,0.06539523747954902,0.24308334223367356
142,85.49254771066629,0.0,0.0,4.057082499758805,0.06539523747954902,0.24308334223367356
143,86.1827305592123,0.0,0.0,4.058062643531344,0.06539523747954902,0.24308334223367356
144,86.87291340775832,0.0,0.0,4.058110547219786,0.06539523747954902,0.24308334223367356
145,87.56309625630433,0.0,0.0,4.059711470042519,0.06539523747954902,0.24308334223367356
146,88.25327910485035,0.0,0.0,4.0630434081424465,0.06539523747954902,0.24308334223367356
147,89.25327910485035,0.0,0.0,4.0626224581073735,0.06539523747954902,0.24308334223367356
148,90.25327910485035,0.0,0.0,4.061930995979711,0.06539523747954902,0.24308334223367356
149,91.25327910485035,0.0,0.0,4.065614565196171,0.06539523747954902,0.24308334223367356
150,92.25327910485035,0.0,0.0,4.066322624862326,0.06539523747954902,0.24308334223367356
151,93.25327910485035,0.0,0.0,4.067681936085135,0.06539523747954902,0.24308334223367356
152,94.25327910485035,0.0,0.0,4.068442328061872,0.06539523747954902,0.24308334223367356
153,95.25327910485035,0.0,0.0,4.0705873761642595,0.06539523747954902,0.24308334223367356
154,96.25327910485035,0.0,0.0,4.069857632624813,0.06539523747954902,0.24308334223367356
155,97.25327910485035,0.0,0.0,4.069363819385229,0.06539523747954902,0.24308334223367356
156,98.25327910485035,0.0,0.0,4.070680579556499,0.06539523747954902,0.24308334223367356
157,99.25327910485035,0.0,0.0,4.070978958192276,0.06539523747954902,0.24308334223367356
158,100.25327910485035,0.0,0.0,4.072295942267377,0.06539523747954902,0.24308334223367356
159,101.25327910485035,0.0,0.0,4.072201057663544,0.06539523747954902,0.24308334223367356
160,102.25327910485035,0.0,0.0,4.0732881741611,0.06539523747954902,0.24308334223367356
161,103.25327910485035,0.0,0.0,4.073955292502534,0.06539523747954902,0.24308334223367356
162,104.25327910485035,0.0,0.0,4.0749537172412715,0.06539523747954902,0.24308334223367356
163,105.25327910485035,0.0,0.0,4.075541750554761,0.06539523747954902,0.24308334223367356
164,106.25327910485035,0.0,0.0,4.074644289085025,0.06539523747954902,0.24308334223367356
165,107.25327910485035,0.0,0.0,4.074679311912475,0.06539523747954902,0.24308334223367356
166,108.25327910485035,0.0,0.0,4.077500899877012,0.06539523747954902,0.24308334223367356
167,109.25327910485035,0.0,0.0,4.077387456154586,0.06539523747954902,0.24308334223367356
168,110.25327910485035,0.0,0.0,4.078448818047124,0.06539523747954902,0.24308334223367356
169,111.25327910485035,0.0,0.0,4.079896026631099,0.06539523747954902,0.24308334223367356
170,112.25327910485035,0.0,0.0,4.078080623008076,0.06539523747954902,0.24308334223367356
171,113.25327910485035,0.0,0.0,4.07877242529075,0.06539523747954902,0.24308334223367356
172,114.25327910485035,0.0,0.0,4.0794968602046655,0.06539523747954902,0.24308334223367356
173,115.25327910485035,0.0,0.0,4.079328523675472,0.06539523747954902,0.24308334223367356
174,116.25327910485035,0.0,0.0,4.08017020728474,0.06539523747954902,0.24308334223367356
175,117.25327910485035,0.0,0.0,4.081108968283637,0.06539523747954902,0.24308334223367356
176,118.25327910485035,0.0,0.0,4.0793467922628635,0.06539523747954902,0.24308334223367356
177,119.25327910485035,0.0,0.0,4.080113854437156,0.06539523747954902,0.24308334223367356
178,120.25327910485035,0.0,0.0,4.084086445677806,0.06539523747954902,0.24308334223367356
179,121.25327910485035,0.0,0.0,4.082477340387369,0.06539523747954902,0.24308334223367356
180,122.25327910485035,0.0,0.0,4.082073269387756,0.06539523747954902,0.24308334223367356
181,123.25327910485035,0.0,0.0,4.0821793549301075,0.06539523747954902,0.24308334223367356
182,124.25327910485035,0.0,0.0,4.0825265275169915,0.06539523747954902,0.24308334223367356
183,125.25327910485035,0.0,0.0,4.082562316156501,0.06539523747954902,0.24308334223367356
184,126.25327910485035,0.0,0.0,4.084362130421219,0.06539523747954902,0.24308334223367356
185,127.25327910485035,0.0,0.0,4.083602717728664,0.06539523747954902,0.24308334223367356
186,128.25327910485035,0.0,0.0,4.083305268770565,0.06539523747954902,0.24308334223367356
187,129.25327910485035,0.0,0.0,4.083165567001923,0.06539523747954902,0.24308334223367356
188,130.25327910485035,0.0,0.0,4.083357828652681,0.06539523747954902,0.24308334223367356
189,131.25327910485035,0.0,0.0,4.083808992030446,0.06539523747954902,0.24308334223367356
190,132.25327910485035,0.0,0.0,4.085230747193317,0.06539523747954902,0.24308334223367356
191,133.25327910485035,0.0,0.0,4.0846834719824034,0.06539523747954902,0.24308334223367356
192,134.25327910485035,0.0,0.0,4.083311001929441,0.06539523747954902,0.24308334223367356
193,135.25327910485035,0.0,0.0,4.08385992483067,0.06539523747954902,0.24308334223367356
194,136.25327910485035,0.0,0.0,4.086613529435942,0.06539523747954902,0.24308334223367356
195,137.25327910485035,0.0,0.0,4.086221772515013,0.06539523747954902,0.24308334223367356
196,138.25327910485035,0.0,0.0,4.084577869411667,0.06539523747954902,0.24308334223367356
197,139.25327910485035,0.0,0.0,4.08626076193502,0.06539523747954902,0.24308334223367356
198,140.25327910485035,0.0,0.0,4.087402453033837,0.06539523747954902,0.24308334223367356
199,141.25327910485035,0.0,0.0,4.0875815232448325,0.06539523747954902,0.24308334223367356
200,142.25327910485035,0.0,0.0,4.086729772543718,0.06539523747954902,0.24308334223367356
201,143.25327910485035,0.0,0.0,4.086457492976383,0.06539523747954902,0.24308334223367356
202,144.25327910485035,0.0,0.0,4.088044175147093,0.06539523747954902,0.24308334223367356
203,145.25327910485035,0.0,0.0,4.087800263180117,0.06539523747954902,0.24308334223367356
204,146.25327910485035,0.0,0.0,4.087047717652265,0.06539523747954902,0.24308334223367356
205,147.25327910485035,0.0,0.0,4.088980522657253,0.06539523747954902,0.24308334223367356
206,148.25327910485035,0.0,0.0,4.088071529453498,0.06539523747954902,0.24308334223367356
207,149.25327910485035,0.0,0.0,4.086797454086584,0.06539523747954902,0.24308334223367356
208,150.25327910485035,0.0,0.0,4.086803402878648,0.06539523747954902,0.24308334223367356
209,151.25327910485035,0.0,0.0,4.087499603398262,0.06539523747954902,0.24308334223367356
210,152.25327910485035,0.0,0.0,4.088306376087136,0.06539523747954902,0.24308334223367356
211,153.25327910485035,0.0,0.0,4.087144741829,0.06539523747954902,0.24308334223367356
212,154.25327910485035,0.0,0.0,4.08799890620316,0.06539523747954902,0.24308334223367356
213,155.25327910485035,0.0,0.0,4.0903527354029805,0.06539523747954902,0.24308334223367356
214,156.25327910485035,0.0,0.0,4.087808372576857,0.06539523747954902,0.24308334223367356
215,157.25327910485035,0.0,0.0,4.090816044029935,0.06539523747954902,0.24308334223367356
216,158.25327910485035,0.0,0.0,4.088047300714773,0.06539523747954902,0.24308334223367356
217,159.25327910485035,0.0,0.0,4.089419458929177,0.06539523747954902,0.24308334223367356
218,160.25327910485035,0.0,0.0,4.090056567624043,0.06539523747954902,0.24308334223367356
219,161.25327910485035,0.0,0.0,4.089081864207998,0.06539523747954902,0.24308334223367356
220,162.25327910485035,0.0,0.0,4.088206198014553,0.06539523747954902,0.24308334223367356
221,163.25327910485035,0.0,0.0,4.087228210930157,0.06539523747954902,0.24308334223367356
222,164.25327910485035,0.0,0.0,4.087589543634461,0.06539523747954902,0.24308334223367356
223,165.25327910485035,0.0,0.0,4.090501522203802,0.06539523747954902,0.24308334223367356
224,166.25327910485035,0.0,0.0,4.088733162531874,0.06539523747954902,0.24308334223367356
225,167.25327910485035,0.0,0.0,4.089907430210428,0.06539523747954902,0.24308334223367356
226,168.25327910485035,0.0,0.0,4.088394890838709,0.06539523747954902,0.24308334223367356
227,169.25327910485035,0.0,0.0,4.090166244404963,0.06539523747954902,0.24308334223367356
228,170.25327910485035,0.0,0.0,4.0905658772601825,0.06539523747954902,0.24308334223367356
229,171.25327910485035,0.0,0.0,4.0916128586716685,0.06539523747954902,0.24308334223367356
230,172.25327910485035,0.0,0.0,4.088353056081187,0.06539523747954902,0.24308334223367356
231,173.25327910485035,0.0,0.0,4.089283142086839,0.06539523747954902,0.24308334223367356
232,174.25327910485035,0.0,0.0,4.0908013208894936,0.06539523747954902,0.24308334223367356
233,175.25327910485035,0.0,0.0,4.088616794368816,0.06539523747954902,0.24308334223367356
234,176.25327910485035,0.0,0.0,4.088953650955629,0.06539523747954902,0.24308334223367356
235,177.25327910485035,0.0,0.0,4.090765434779113,0.06539523747954902,0.24308334223367356
236,178.25327910485035,0.0,0.0,4.090155602416727,0.06539523747954902,0.24308334223367356
237,179.25327910485035,0.0,0.0,4.088511336736481,0.06539523747954902,0.24308334223367356
238,180.25327910485035,0.0,0.0,4.092913595915503,0.06539523747954902,0.24308334223367356
239,181.25327910485035,0.0,0.0,4.090012719462224,0.06539523747954902,0.24308334223367356
240,182.25327910485035,0.0,0.0,4.092002423604711,0.06539523747954902,0.24308334223367356
241,183.25327910485035,0.0,0.0,4.089807675840389,0.06539523747954902,0.24308334223367356
242,184.25327910485035,0.0,0.0,4.089725068121629,0.06539523747954902,0.24308334223367356
243,185.25327910485035,0.0,0.0,4.0912309304343895,0.06539523747954902,0.24308334223367356
244,186.25327910485035,0.0,0.0,4.090907597150196,0.06539523747954902,0.24308334223367356
245,187.25327910485035,0.0,0.0,4.088246624783319,0.06539523747954902,0.24308334223367356
246,188.25327910485035,0.0,0.0,4.088587064150693,0.06539523747954902,0.24308334223367356
247,189.25327910485035,0.0,0.0,4.091287689101839,0.06539523747954902,0.24308334223367356
