,Time [s],Current [A],Power [W],Voltage [V],Capacity [Ah],Energy [Wh]
0,0.0,8.757333703184017,35.009999999049114,3.998342059250756,0.0,0.0
1,0.004002379753979839,8.75742264014766,35.010000000001206,3.997410561871901,9.73625863110324e-06,3.8923143107455275e-05
2,0.008004759507959678,8.757511530905864,35.01000000000762,3.9988506294736177,1.9472616088476187e-05,7.784628621491769e-05
3,0.016009519015919356,8.75768919637467,35.00999999994109,3.997486331749884,3.894572605026394e-05,0.00015569257242969457
4,0.03201903803183871,8.75804396701495,35.010000000000005,3.9985726095855334,7.789352367031494e-05,0.0003113851448595103
5,0.06403807606367742,8.758752012630953,35.00999999999999,3.9973521458895043,0.00015579541639361338,0.0006227702897191416
6,0.12807615212735485,8.760160151039182,35.00999999999997,3.9961564315177927,0.00031162425030534756,0.0012455405794384042
7,0.19211422819103227,8.761562984077706,35.01000000705297,3.9959939295966582,0.00046747803830842215,0.0018683108692831279
8,0.3201903803183871,8.764348469487409,35.010000000000026,3.9948822993005852,0.0007792847127182052,0.0031138514487216544
9,0.44826653244574194,8.767113781873228,35.01000005287909,3.9921435291653142,0.0010911897678418231,0.004359392030041444
10,0.5763426845730968,8.769858628044657,35.010000106881805,3.9918276142247646,0.001403192475558724,0.005604932613282473
11,0.8324949888278065,8.775298129167565,35.010000011545586,3.9895824568063802,0.0020275849300888113,0.008096013772981034
12,1.0886472930825162,8.780658425064424,35.010000107835445,3.9867940711548266,0.00265235878799264,0.010587094939530944
13,1.6009519015919356,8.791117573431094,35.01000000000008,3.98293093146654,0.003903394912108443,0.01556925725728506
14,2.1132565101013547,8.801223626841443,35.010000031917954,3.9787539554737603,0.005155869196706459,0.020551419579581304
15,2.625561118610774,8.81097435040309,35.01000001703966,3.97237840760855,0.006409731075920289,0.025533581899760266
16,3.137865727120193,8.820373179019454,35.00999987712625,3.9714594392693496,0.007664930472693773,0.030515744200028595
17,3.6501703356296122,8.82942475105271,35.009999983989985,3.965305873893535,0.008921417970041392,0.03549790651550436
18,4.162474944139031,8.838139113135654,35.0099997869795,3.961359574871752,0.010179145580682156,0.040480068802944184
19,5.18708416115787,8.854601805798175,35.00999988039583,3.952712851277141,0.012699286309363393,0.050444393404411404
20,6.211693378176708,8.869859804399592,35.010000391144004,3.948512843215572,0.015223769673044708,0.06040871815124454
21,7.236302595195546,8.883998843499663,35.010003165329735,3.940894184372967,0.017752277200554282,0.07037304368764885
22,8.260911812214385,8.897124044385725,35.0099977009396,3.9350499483491395,0.02028452033967582,0.08033736766881303
23,9.285521029233223,8.90928268478492,35.01001512364003,3.930292221332859,0.022820223994080534,0.09030169660871594
24,10.310130246252061,8.920603257650736,35.01000000000365,3.9242136487248733,0.02535914963829087,0.10026602124422518
25,11.3347394632709,8.93110989597272,35.009999800761754,3.920147430253063,0.027901065615408036,0.11023034582302745
26,12.359348680289738,8.940873672621475,35.00999864176742,3.9159419703313296,0.03044576049684388,0.12019467007196409
27,13.383957897308576,8.949950803477734,35.00999849271233,3.911111794415333,0.03299303885381845,0.13015899427847763
28,15.433176331346253,8.966235613820032,35.00999906477117,3.9064927272019325,0.03809686532708654,0.15008764301713623
29,17.48239476538393,8.980342624147061,35.0100069921369,3.8989786847665617,0.04320872189635777,0.17001629626826814
30,21.580831633459283,9.003201220005453,35.00999999992595,3.8879485763802055,0.053458458510460924,0.20987359481021664
31,25.252048772241896,9.018963863781105,35.009999461973386,3.882985057206589,0.06265584037456488,0.24557618093620742
32,28.923265911024508,9.03144026399485,35.01000273991469,3.8756226650023113,0.07186594545375079,0.2812787704049855
33,32.594483049807124,9.041647491823685,35.00999943328808,3.8720419443354155,0.08108645968564356,0.3169813565017235
34,36.26570018858973,9.050387154903522,35.01000494469471,3.868659884403391,0.09031588647333795,0.3526839482188977
35,39.93691732737234,9.05819402287636,35.01001270286397,3.865925645581649,0.0995532745686718,0.3883865478477175
36,43.60813446615495,9.065413187687923,35.00999887308713,3.8618546402353395,0.10879802464222339,0.4240891333731723
37,47.27935160493756,9.072281662331623,35.00998749837522,3.8589630633810827,0.11804977906628313,0.45979170729889446
38,50.95056874372017,9.07898183284822,35.01000265185149,3.8563949535714634,0.12730836620724098,0.4954942966778672
39,54.62178588250278,9.085538432420234,35.010015049377365,3.8518513969495918,0.13657363965395466,0.5311968986996203
40,58.29300302128539,9.09192173797029,35.00998628310804,3.8496564648833025,0.14584542268420653,0.5668994713860342
41,61.964220160067995,9.098266480637061,35.00996804225151,3.84796293187927,0.15512367597224155,0.6026020254707413
42,65.6354372988506,9.104703076332257,35.01000028075204,3.846053598175847,0.16440849318817422,0.6383046124317082
43,69.30665443763321,9.111161600714428,35.010023779488066,3.8430137249210756,0.17369989669449665,0.6740072233562757
44,72.97787157641582,9.117601396609166,35.009996303612304,3.8396736038849757,0.18299786739222437,0.7097098062614249
45,76.64908871519843,9.124155337206377,35.00997681911195,3.8368827378868318,0.19230252168413184,0.7454123692966209
46,80.32030585398104,9.130895026390633,35.01000758933678,3.8356036441957495,0.20161404899338467,0.781114963710755
47,83.99152299276365,9.137691775039986,35.009998639905916,3.831403977845043,0.21093250750822903,0.8168175489984156
48,87.66274013154626,9.144616213032378,35.00999460583284,3.8291782321959857,0.2202580274440273,0.852520130172199
49,91.33395727032887,9.151703316430282,35.00999597512669,3.824155357432645,0.22959077468411968,0.8882227127423644
50,95.00517440911148,9.158934420426919,35.010002486568276,3.8223800463989592,0.23893089607780224,0.9239253019527842
51,102.3476086866767,9.173780782114555,35.0099999999983,3.8166831860605432,0.2576414189859875,0.9953304753021025
52,108.9557995364854,9.187499552131335,35.010000072712614,3.8106058814440398,0.27450607189515863,1.059595131449964
53,115.56399038629411,9.201490443130796,35.01000107664833,3.802972825143242,0.2913964066037417,1.1238597894406588
54,122.17218123610282,9.21565061574446,35.01000329838081,3.800358742145472,0.3083127338465185,1.1881244515095843
55,128.78037208591152,9.229896426591553,35.01000396596742,3.79158056587371,0.32525521082176423,1.2523891148039379
56,141.99675378552894,9.2583092727812,35.010003373595694,3.7822958032165923,0.35924447450014857,1.3809184392179195
57,153.8914973151846,9.283484801948648,35.010003976616744,3.7696030968043686,0.3899179941614362,1.496594833182942
58,165.78624084484028,9.30806768538957,35.00998121173874,3.761206704544631,0.42067273801543187,1.6122711519306354
59,177.68098437449595,9.331827282590913,35.01001434137123,3.751265680029142,0.4515059858458382,1.7279475801417958
60,189.57572790415162,9.354709628403072,35.0099413530467,3.743260904693602,0.48241483913035343,1.8436237671925673
61,201.4704714338073,9.376675899812119,35.01006351846222,3.7319183906235547,0.5133962710717336,1.959300357889529
62,213.36521496346296,9.397756158683752,35.00987241167827,3.7242271713224024,0.5444473542000072,2.07497631715144
63,225.25995849311863,9.418101421903424,35.01017149497944,3.719267851096489,0.5755656600194036,2.1906532646131187
64,237.1547020227743,9.437745186164182,35.0100589168076,3.7104514255237957,0.6067488707104217,2.3063298401057746
65,249.04944555242997,9.456933669259982,35.01006195806029,3.7024442600774727,0.6379954819806475,2.4220064256470195
66,260.94418908208564,9.475765592738638,35.00991910212868,3.693913325290792,0.6693043157230812,2.5376825391786344
67,272.8389326117413,9.494563824687496,35.01001413838851,3.687448596317886,0.7006752606176936,2.6533589667191206
68,284.733676141397,9.51331015410132,35.009985323428864,3.6794047227687483,0.7321081451735559,2.7690352990522302
69,296.62841967105265,9.532227517805623,35.01000548008663,3.6729046126498472,0.7636035345042849,2.884711697984861
70,308.5231632007083,9.551360624417333,35.010010832164404,3.665186444505491,0.7951621414450337,3.000388114601267
71,320.417906730364,9.570866368599004,35.009976121661104,3.6572747509999606,0.8267851972258927,3.116064416530858
72,332.31265026001967,9.590680935857481,35.00996702812929,3.649317709204429,0.8584737222277768,3.2317406884145528
73,344.20739378967534,9.610915949638397,35.01000468683426,3.6413674118667556,0.8902291056461173,3.3474170847262017
74,356.102137319331,9.631569159914088,35.00997937907556,3.6345010762242116,0.9220527292420393,3.463093397418601
75,367.9968808489867,9.652735692685162,35.010006268457204,3.6294467809319544,0.9539462890820514,3.578769798956083
76,379.89162437864235,9.674387728799566,35.00998754951949,3.617027824395037,0.9859113893155288,3.694446138644409
77,391.786367908298,9.69654225664499,35.00998929326665,3.610607042318231,1.0179496902231011,3.8101224840942414
78,403.6811114379537,9.719218248169899,35.00999864102606,3.6014176338769297,1.0500629147705263,3.9257988604299636
79,415.57585496760936,9.742415362768508,35.01000864355225,3.594536158028184,1.0822527847981676,4.0414752698149865
80,427.47059849726503,9.766132098864972,35.009999986633254,3.5867320109961844,1.1145210171850388,4.157151650596723
81,439.3653420269207,9.790335173947474,35.00999904622143,3.5748707990495463,1.1468692188415588,4.272828028271249
82,451.26008555657637,9.81500023106977,35.00999999991181,3.5670853078331555,1.1792989162004717,4.388504409096859
83,463.15482908623204,9.840086548666923,35.01000000097945,3.559999693153321,1.2118115011465849,4.5041807899259965
84,475.0495726158877,9.865539771643215,35.009999999999934,3.5488722104112584,1.2444081859702834,4.619857170751898
85,486.9443161455434,9.891289717943899,35.010000279876785,3.541136146282115,1.2770899510737452,4.735533552502538
86,498.83905967519905,9.917252284448498,35.01000048321299,3.5288933504625195,1.3098574989744138,4.851209934925022
87,510.7338032048547,9.94332901704137,35.01000074826151,3.521668207657466,1.342711206887939,4.96688631822325
88,534.523290264166,9.995390802756067,35.009999999999266,3.502711549881183,1.4087626569309737,5.198239079875048
89,558.3127773234773,10.046493716368133,35.01000365758093,3.4841939384498946,1.4751518047801382,5.4295918656968425
90,582.1022643827887,10.095760900239128,35.009989699217336,3.468513211830663,1.5418665195829548,5.660944559279108
91,605.8917514421,10.14260718758122,35.009969495359485,3.4518305219700163,1.608890803593133,5.892297119350425
92,629.6812385014114,10.18685675947276,35.009945405682586,3.43718395651959,1.676207497219393,6.123649520232559
93,653.4707255607227,10.228742676326355,35.010000977111865,3.420884693944181,1.7438009809781405,6.3550022883413035
94,677.260212620034,10.268513061288537,35.01008382360105,3.410054838876425,1.8116572750308886,6.58635560391546
95,701.0496996793454,10.306748552983326,35.00993203007711,3.3980104223367573,1.8797662365099919,6.81770791640904
96,724.8391867386567,10.344103399855522,35.009999893127976,3.3834495691377104,1.9481220459463924,7.049060677354611
97,748.6286737979681,10.381041591476103,35.00998918971994,3.3740049254389692,2.0167219500026685,7.280413367570021
98,772.4181608572794,10.417815974224641,35.009974417328515,3.360871447668337,2.0855648661985304,7.511765960166648
99,793.8286992106596,10.450998708856167,35.009979510802474,3.349414358941793,2.1477208408338337,7.719983323796396
100,815.2392375640397,10.484599764495194,35.00997621874204,3.3397172061023834,2.210076653438713,7.928200667847036
101,836.6497759174199,10.518998104635306,35.009980344050696,3.327808780346381,2.272637045760498,8.13641803643242
102,858.0603142708001,10.554541319006077,35.0099842857387,3.31736876284258,2.3354088267918636,8.344635428460487
103,879.4708526241802,10.591470188523658,35.010043566081514,3.306609629925451,2.398400237539105,8.552853173050792
104,900.8813909775604,10.63004170931179,35.010012431442995,3.291642288314082,2.461621047460008,8.761070732471827
105,922.2919293309405,10.670355583348146,35.00999520521226,3.2824540669494255,2.5250816189770857,8.969288189442064
106,943.7024676843207,10.712477250311895,35.00995970928661,3.2675953863522,2.5887927037069507,9.177505435304836
107,965.1130060377009,10.756473535847357,35.00996891181151,3.254493267102273,2.6527654507031673,9.385722735898442
108,986.523544391081,10.802238145187943,35.0101031556637,3.242612309996769,2.7170103768448044,9.593940834890148
109,1007.9340827444612,10.849733816833528,35.00988040536265,3.2263879357417835,2.7815377774029377,9.802157609103
110,1029.3446210978414,10.89906944134185,35.009999224937005,3.212418808586737,2.846358595261272,10.010375089980036
111,1050.7551594512215,10.950020703405329,35.01016944409499,3.1953109324171374,2.911482439216985,10.218593583213684
112,1072.1656978046017,11.002407688470212,35.00996491090392,3.1818608448692274,2.9769178480485174,10.426810860012406
113,1093.5762361579818,11.056357436126907,35.00983194546713,3.1660564237113076,3.0426741160859825,10.635027346016246
114,1114.986774511362,11.111882824525306,35.01007370785863,3.149975217002166,3.1087606142506394,10.843245269870906
115,1136.3973128647422,11.16893200024923,35.009968097537524,3.1350327066904793,3.175186405072204,11.051462565621723
116,1157.8078512181223,11.228011825841515,35.00990668043626,3.1186344868479132,3.2419635655803667,11.259679496102205
117,1179.2183895715025,11.289712205209542,35.01002447660784,3.1019955912809802,3.309107681182662,11.467897127160315
118,1200.6289279248826,11.354812922217345,35.0100021216045,3.0829236096933226,3.376638974951159,11.676114625264907
119,1222.0394662782628,11.42454633424643,35.00999542778653,3.0629106074903856,3.444584999245424,11.884332083558874
120,1243.450004631643,11.500432633904556,35.0100386609232,3.0433305536118724,3.5129823475756123,12.092549798976378
121,1264.8605429850231,11.58419561047608,35.01000154236907,3.0224140572762335,3.5818778654676002,12.300767293636044
122,1286.2710813384033,11.678368757653574,35.00999265246375,2.9988086878983284,3.6513334660761165,12.508984735424136
123,1307.6816196917835,11.78606240611948,35.00999980085278,2.970630574947361,3.72142956084877,12.717202219726357
124,1329.0921580451636,11.911977769170548,35.00999511704347,2.939174453545725,3.7922745210963917,12.925419676172222
125,1350.5026963985438,12.065266660704959,35.010000008913906,2.90092755236356,3.8640311473693867,13.133637161711857
126,1369.772180916586,12.244870048019203,35.00997290665407,2.8575739401106834,3.929573462318205,13.321032753629037
127,1372.7185802424349,12.278544291981294,35.010000000878335,2.8522452527896824,3.9396227663805106,13.349686487073635
128,1378.6113788941327,12.353182698751894,35.00999999996983,2.834787225903133,3.9598435492558943,13.406993953961347
129,1384.5041775458305,12.44182402440575,35.009914908022495,2.8138011766521545,3.9802094280991387,13.464301281563026
130,1389.1970638428895,12.528800552501147,35.00999769467499,2.7954914750427067,3.9965417159967545,13.509939597796752
131,1393.8899501399485,12.638964148396006,35.009999961343205,2.768952350999568,4.013017610902596,13.555577916985257
132,1397.4526635151349,12.750409370250207,35.009999767989406,2.7448475930360026,4.025635959236621,13.590225304329339
133,1401.0153768903212,12.911390484509887,35.00999866405568,2.7102657371055745,4.038413621339792,13.624872690580917
134,1401.816987399738,12.960007597744465,35.009999994039156,2.701784591550373,4.04129942086548,13.63266835278367
135,1403.420208418572,13.082847498927455,35.0099995383803,2.6764397604845938,4.047125725336723,13.648259676986251
136,1403.8210136732805,13.121653794073707,35.00999999476841,2.667583918888413,4.048586621945371,13.65215750808771
137,1404.0214163006347,13.142739504552782,35.009999999985595,2.664365062520114,4.0493182440363,13.654106423638728
138,1404.4222215553432,13.18910949347989,35.0099999991931,2.656545177815918,4.0507866508112755,13.658004254740678
139,1404.7339776376766,13.230009069666258,35.00999929606525,2.6460773399487554,4.051932355199274,13.661036082580411
140,1405.04573372001,13.275800487746498,35.01000085310492,2.6371115380016628,4.0530820250742465,13.664067910554982
141,1405.0506049087965,13.276565659518774,35.00999999999985,2.6371827635138034,4.053099989701403,13.66411528286593
142,1405.0530405031898,13.276941415815248,35.00999999998859,2.638611803786806,4.053108972269201,13.664138969021405
143,1405.0579116919762,13.27769679486503,35.00999999999922,2.637027806996817,4.053126938426906,13.664186341332353
144,1405.067654069549,13.279223123691125,35.01000000009669,2.6353364849522025,4.05316287487289,13.66428108595425
145,1405.0725252583354,13.279987548455122,35.009999999999934,2.636984033526785,4.053180844130232,13.6643284582652
146,1405.0749608527287,13.280373371673557,35.00999999999557,2.636474996693512,4.053189829019933,13.664352144420674
147,1405.0761786499254,13.280567006577195,35.00999999999992,2.635904810873591,4.053194321530286,13.66436398749841
148,1405.0786142443187,13.280953245093414,35.009999999999025,2.6368328678427218,4.0532033068123035,13.664387673653886
149,1405.0834854331051,13.281725613923577,35.00999999999679,2.636900885466474,4.053221278421436,13.664435045964833
150,1405.093227810678,13.283272410682667,35.00999999999925,2.6356760117947893,4.053257225825665,13.66452979058673
151,1405.1127125658238,13.286384277654138,35.00999999993768,2.6333580443253104,4.0533291374768945,13.664719279830523
152,1405.1516820761155,13.29268748950627,35.01000000000009,2.6322212741340887,4.053473029010763,13.66509825831811
153,1405.2296210966988,13.305634495439929,35.010000000008915,2.630921691518175,4.0537610923776555,13.665856215293283
154,1405.2393634742716,13.30729649352946,35.010000000000026,2.62991707198821,4.053797104796242,13.665950959915179
155,1405.2588482294175,13.310638775081323,35.00999999993843,2.631602441627984,4.053869147723288,13.666140449158974
156,1405.2978177397092,13.317408783046954,35.010000000000026,2.629247206838909,4.054013306861797,13.666519427646561
157,1405.317302494855,13.320848574164124,35.010000000000105,2.628686507645919,4.054085405048687,13.666708916890354
158,1405.3562720051468,13.32781999331635,35.0100000000001,2.62726888329245,4.05422967688713,13.667087895377941
159,1405.3757567602927,13.33136401678872,35.010000000000105,2.6245760172851047,4.054301831988137,13.667277384621734
160,1405.4147262705844,13.338550233842955,35.01000000000014,2.624648648974352,4.054446219979975,13.667656363109323
161,1405.4342110257303,13.34220544099943,35.01000000000012,2.6244820685817265,4.054518433759454,13.667845852353116
162,1405.473180536022,13.349620852878752,35.0100000000002,2.622005879357122,4.054662941589236,13.668224830840703
163,1405.492665291168,13.353394811272683,35.01000000000016,2.621482613884891,4.054735215930421,13.668414320084496
164,1405.5316348014596,13.361055212936762,35.01000000000028,2.619587017362951,4.054879847535595,13.668793298572085
165,1405.577417518331,13.370271954377912,35.0100000001151,2.6188683988058172,4.055049882917645,13.66923853549366
166,1405.6232002352024,13.379750715836733,35.00999904274189,2.615278313618266,4.055220038845099,13.66968377240306
167,1405.6689829520737,13.38949599369585,35.00999803956449,2.614092451590144,4.055390318707357,13.670129009299702
168,1405.670413661976,13.389792717841221,35.00999999998656,2.615402018162046,4.0553956400709765,13.670142922953502
169,1405.6732750817805,13.390414036009776,35.009999999999906,2.6142321354748383,4.055406283292063,13.670170750261102
170,1405.6789979213895,13.391659205291795,35.009999999998826,2.614622962057538,4.055427571713655,13.6702264048763
171,1405.6904436006073,13.39416084123592,35.00999999997662,2.6138536772162824,4.055470156510427,13.670337714106692
172,1405.713334959043,13.399210868322255,35.00999999999996,2.6126015379588448,4.055555358215635,13.67056033256748
